
Filename:
	C:\XRD Data\Shane\Emily\Emily_XRD_09_30_2015_1.raw

File ID:
	ECK008-POSTANNEAL

File Created:
	September 30, 2015 - 09:55 AM

Comment:
	(Mn_1.05 Ni_0.95 Si)_1-x (FeCoGe)_x

x=0.4

post-anneal

Scan Type: Normal
Start Angle: 5 deg.
Stop Angle: 90 deg.
Num Points: 4251
Step Size: 0.02 deg.
Datafile Res: 1600 
Scan Rate: 0.040000
Scan Mode: Step
Wavelength: 1.540562

Diffractometer Optics:
		Detector:
			 Type: Fixed Slits
			 Offset: 0.000000
		Tube: 
			 Type: Fixed Slits


Axis[0]
	 Selected   : no 
	 Iterative  : no 
	 Start Angle: 0.000000 
	 Stop Angle : 0.000000 
	 Step Size  : 0.000000 
	 Oscillating: no 

Axis[1]
	 Selected   : no 
	 Iterative  : no 
	 Start Angle: 0.000000 
	 Stop Angle : 0.000000 
	 Step Size  : 0.000000 
	 Oscillating: no 

Axis[2]
	 Selected   : no 
	 Iterative  : no 
	 Start Angle: 0.000000 
	 Stop Angle : 0.000000 
	 Step Size  : 0.000000 
	 Oscillating: no 

Axis[3]
	 Selected   : no 
	 Iterative  : no 
	 Start Angle: 0.000000 
	 Stop Angle : 0.000000 
	 Step Size  : 0.000000 
	 Oscillating: no 

Axis[4]
	 Selected   : no 
	 Iterative  : no 
	 Start Angle: 0.000000 
	 Stop Angle : 0.000000 
	 Step Size  : 0.000000 
	 Oscillating: no 

Axis[5]
	 Selected   : no 
	 Iterative  : no 
	 Start Angle: 0.000000 
	 Stop Angle : 0.000000 
	 Step Size  : 0.000000 
	 Oscillating: no 

Axis[6]
	 Selected   : no 
	 Iterative  : no 
	 Start Angle: 0.000000 
	 Stop Angle : 0.000000 
	 Step Size  : 0.000000 
	 Oscillating: no 

Axis[7]
	 Selected   : no 
	 Iterative  : no 
	 Start Angle: 0.000000 
	 Stop Angle : 0.000000 
	 Step Size  : 0.000000 
	 Oscillating: no 

Axis[8]
	 Selected   : no 
	 Iterative  : no 
	 Start Angle: 0.000000 
	 Stop Angle : 0.000000 
	 Step Size  : 0.000000 
	 Oscillating: no 

Axis[9]
	 Selected   : no 
	 Iterative  : no 
	 Start Angle: 0.000000 
	 Stop Angle : 0.000000 
	 Step Size  : 0.000000 
	 Oscillating: no 




    Deg.           CPS         ESD

Range 0
   5.000        176.00        18.762
   5.020        174.00        18.655
   5.040        192.00        19.596
   5.060        218.00        20.881
   5.080        168.00        18.330
   5.100        190.00        19.494
   5.120        182.00        19.079
   5.140        188.00        19.391
   5.160        206.00        20.298
   5.180        164.00        18.111
   5.200        144.00        16.971
   5.220        164.00        18.111
   5.240        152.00        17.436
   5.260        120.00        15.492
   5.280        190.00        19.494
   5.300        126.00        15.875
   5.320        150.00        17.321
   5.340        178.00        18.868
   5.360        152.00        17.436
   5.380        158.00        17.776
   5.400        120.00        15.492
   5.420        134.00        16.371
   5.440        166.00        18.221
   5.460        148.00        17.205
   5.480        158.00        17.776
   5.500        178.00        18.868
   5.520        148.00        17.205
   5.540        170.00        18.439
   5.560        128.00        16.000
   5.580        140.00        16.733
   5.600        142.00        16.852
   5.620        150.00        17.321
   5.640        158.00        17.776
   5.660        222.00        21.071
   5.680        138.00        16.613
   5.700        162.00        18.000
   5.720        106.00        14.560
   5.740        158.00        17.776
   5.760        134.00        16.371
   5.780        134.00        16.371
   5.800        120.00        15.492
   5.820        168.00        18.330
   5.840        118.00        15.362
   5.860        124.00        15.748
   5.880        132.00        16.248
   5.900        174.00        18.655
   5.920        124.00        15.748
   5.940        120.00        15.492
   5.960        152.00        17.436
   5.980        188.00        19.391
   6.000        144.00        16.971
   6.020        100.00        14.142
   6.040        126.00        15.875
   6.060        156.00        17.664
   6.080        126.00        15.875
   6.100        116.00        15.232
   6.120        138.00        16.613
   6.140        146.00        17.088
   6.160         98.00        14.000
   6.180        148.00        17.205
   6.200        154.00        17.550
   6.220        170.00        18.439
   6.240        136.00        16.492
   6.260        156.00        17.664
   6.280        144.00        16.971
   6.300        128.00        16.000
   6.320        134.00        16.371
   6.340        112.00        14.967
   6.360        168.00        18.330
   6.380        102.00        14.283
   6.400        142.00        16.852
   6.420         94.00        13.711
   6.440        100.00        14.142
   6.460        110.00        14.832
   6.480        118.00        15.362
   6.500        172.00        18.547
   6.520        116.00        15.232
   6.540        118.00        15.362
   6.560        124.00        15.748
   6.580        112.00        14.967
   6.600        114.00        15.100
   6.620        138.00        16.613
   6.640         92.00        13.565
   6.660        110.00        14.832
   6.680        120.00        15.492
   6.700         92.00        13.565
   6.720        120.00        15.492
   6.740        124.00        15.748
   6.760         98.00        14.000
   6.780        108.00        14.697
   6.800         94.00        13.711
   6.820        116.00        15.232
   6.840        122.00        15.620
   6.860         80.00        12.649
   6.880         98.00        14.000
   6.900         90.00        13.416
   6.920        122.00        15.620
   6.940        116.00        15.232
   6.960        112.00        14.967
   6.980        104.00        14.422
   7.000         88.00        13.266
   7.020        102.00        14.283
   7.040        102.00        14.283
   7.060        108.00        14.697
   7.080         96.00        13.856
   7.100        146.00        17.088
   7.120        128.00        16.000
   7.140        108.00        14.697
   7.160         98.00        14.000
   7.180        112.00        14.967
   7.200        116.00        15.232
   7.220        156.00        17.664
   7.240         86.00        13.115
   7.260         98.00        14.000
   7.280        120.00        15.492
   7.300        116.00        15.232
   7.320        118.00        15.362
   7.340         68.00        11.662
   7.360         88.00        13.266
   7.380        114.00        15.100
   7.400        100.00        14.142
   7.420         64.00        11.314
   7.440         96.00        13.856
   7.460        110.00        14.832
   7.480        122.00        15.620
   7.500         94.00        13.711
   7.520         98.00        14.000
   7.540        100.00        14.142
   7.560        114.00        15.100
   7.580        118.00        15.362
   7.600        112.00        14.967
   7.620        126.00        15.875
   7.640        128.00        16.000
   7.660         94.00        13.711
   7.680        112.00        14.967
   7.700         70.00        11.832
   7.720         72.00        12.000
   7.740         70.00        11.832
   7.760         94.00        13.711
   7.780        134.00        16.371
   7.800        116.00        15.232
   7.820        104.00        14.422
   7.840         64.00        11.314
   7.860        112.00        14.967
   7.880        110.00        14.832
   7.900        124.00        15.748
   7.920         90.00        13.416
   7.940         88.00        13.266
   7.960         90.00        13.416
   7.980         96.00        13.856
   8.000         88.00        13.266
   8.020        106.00        14.560
   8.040         92.00        13.565
   8.060         80.00        12.649
   8.080         70.00        11.832
   8.100         98.00        14.000
   8.120        100.00        14.142
   8.140        132.00        16.248
   8.160         94.00        13.711
   8.180        104.00        14.422
   8.200         80.00        12.649
   8.220        104.00        14.422
   8.240         88.00        13.266
   8.260         74.00        12.166
   8.280         94.00        13.711
   8.300        110.00        14.832
   8.320         78.00        12.490
   8.340         90.00        13.416
   8.360        116.00        15.232
   8.380         94.00        13.711
   8.400         84.00        12.961
   8.420         78.00        12.490
   8.440        106.00        14.560
   8.460         86.00        13.115
   8.480         82.00        12.806
   8.500         98.00        14.000
   8.520         78.00        12.490
   8.540        120.00        15.492
   8.560         72.00        12.000
   8.580         82.00        12.806
   8.600         92.00        13.565
   8.620         58.00        10.770
   8.640         90.00        13.416
   8.660         60.00        10.954
   8.680         62.00        11.136
   8.700        100.00        14.142
   8.720        100.00        14.142
   8.740         96.00        13.856
   8.760         80.00        12.649
   8.780         66.00        11.489
   8.800         66.00        11.489
   8.820        104.00        14.422
   8.840        108.00        14.697
   8.860         96.00        13.856
   8.880         76.00        12.329
   8.900         84.00        12.961
   8.920         62.00        11.136
   8.940        106.00        14.560
   8.960         88.00        13.266
   8.980         94.00        13.711
   9.000        102.00        14.283
   9.020         82.00        12.806
   9.040         70.00        11.832
   9.060         70.00        11.832
   9.080         84.00        12.961
   9.100         64.00        11.314
   9.120         82.00        12.806
   9.140         90.00        13.416
   9.160         96.00        13.856
   9.180         82.00        12.806
   9.200         60.00        10.954
   9.220         86.00        13.115
   9.240         78.00        12.490
   9.260         74.00        12.166
   9.280         62.00        11.136
   9.300         88.00        13.266
   9.320         74.00        12.166
   9.340        100.00        14.142
   9.360         78.00        12.490
   9.380        114.00        15.100
   9.400         82.00        12.806
   9.420         86.00        13.115
   9.440         82.00        12.806
   9.460        100.00        14.142
   9.480         82.00        12.806
   9.500        108.00        14.697
   9.520         74.00        12.166
   9.540         68.00        11.662
   9.560         80.00        12.649
   9.580         84.00        12.961
   9.600         80.00        12.649
   9.620         52.00        10.198
   9.640         78.00        12.490
   9.660         60.00        10.954
   9.680         74.00        12.166
   9.700         36.00         8.485
   9.720         70.00        11.832
   9.740         58.00        10.770
   9.760         60.00        10.954
   9.780         94.00        13.711
   9.800         58.00        10.770
   9.820        120.00        15.492
   9.840         76.00        12.329
   9.860         94.00        13.711
   9.880         70.00        11.832
   9.900         88.00        13.266
   9.920         72.00        12.000
   9.940         80.00        12.649
   9.960         64.00        11.314
   9.980         80.00        12.649
  10.000         74.00        12.166
  10.020        138.00        16.613
  10.040         94.00        13.711
  10.060         46.00         9.592
  10.080        122.00        15.620
  10.100         54.00        10.392
  10.120         70.00        11.832
  10.140         96.00        13.856
  10.160         84.00        12.961
  10.180         96.00        13.856
  10.200         68.00        11.662
  10.220         76.00        12.329
  10.240         96.00        13.856
  10.260         64.00        11.314
  10.280         90.00        13.416
  10.300         88.00        13.266
  10.320         68.00        11.662
  10.340         68.00        11.662
  10.360         76.00        12.329
  10.380         64.00        11.314
  10.400         88.00        13.266
  10.420         60.00        10.954
  10.440         84.00        12.961
  10.460         70.00        11.832
  10.480         82.00        12.806
  10.500         56.00        10.583
  10.520         66.00        11.489
  10.540         60.00        10.954
  10.560         50.00        10.000
  10.580         58.00        10.770
  10.600         60.00        10.954
  10.620         94.00        13.711
  10.640         72.00        12.000
  10.660         62.00        11.136
  10.680         52.00        10.198
  10.700         26.00         7.211
  10.720         88.00        13.266
  10.740         70.00        11.832
  10.760         86.00        13.115
  10.780         48.00         9.798
  10.800         50.00        10.000
  10.820         68.00        11.662
  10.840         80.00        12.649
  10.860         58.00        10.770
  10.880         64.00        11.314
  10.900         78.00        12.490
  10.920         44.00         9.381
  10.940         52.00        10.198
  10.960         62.00        11.136
  10.980         62.00        11.136
  11.000         48.00         9.798
  11.020         92.00        13.565
  11.040         72.00        12.000
  11.060         68.00        11.662
  11.080         96.00        13.856
  11.100         88.00        13.266
  11.120         72.00        12.000
  11.140         88.00        13.266
  11.160         64.00        11.314
  11.180         54.00        10.392
  11.200         50.00        10.000
  11.220         48.00         9.798
  11.240         62.00        11.136
  11.260         54.00        10.392
  11.280         46.00         9.592
  11.300         82.00        12.806
  11.320         74.00        12.166
  11.340         56.00        10.583
  11.360         54.00        10.392
  11.380         78.00        12.490
  11.400         70.00        11.832
  11.420         66.00        11.489
  11.440         88.00        13.266
  11.460         46.00         9.592
  11.480         64.00        11.314
  11.500         56.00        10.583
  11.520         62.00        11.136
  11.540         80.00        12.649
  11.560         64.00        11.314
  11.580         68.00        11.662
  11.600         86.00        13.115
  11.620         80.00        12.649
  11.640         68.00        11.662
  11.660         52.00        10.198
  11.680         48.00         9.798
  11.700        100.00        14.142
  11.720         70.00        11.832
  11.740         30.00         7.746
  11.760         94.00        13.711
  11.780         70.00        11.832
  11.800         50.00        10.000
  11.820         58.00        10.770
  11.840         62.00        11.136
  11.860         80.00        12.649
  11.880         66.00        11.489
  11.900         44.00         9.381
  11.920         78.00        12.490
  11.940         64.00        11.314
  11.960         66.00        11.489
  11.980        124.00        15.748
  12.000         56.00        10.583
  12.020         74.00        12.166
  12.040         74.00        12.166
  12.060         82.00        12.806
  12.080         74.00        12.166
  12.100         82.00        12.806
  12.120         68.00        11.662
  12.140         86.00        13.115
  12.160         74.00        12.166
  12.180         84.00        12.961
  12.200         70.00        11.832
  12.220         82.00        12.806
  12.240         64.00        11.314
  12.260         92.00        13.565
  12.280         78.00        12.490
  12.300         84.00        12.961
  12.320         76.00        12.329
  12.340         64.00        11.314
  12.360         52.00        10.198
  12.380         52.00        10.198
  12.400         66.00        11.489
  12.420         68.00        11.662
  12.440         54.00        10.392
  12.460         70.00        11.832
  12.480         62.00        11.136
  12.500         60.00        10.954
  12.520         72.00        12.000
  12.540         48.00         9.798
  12.560         42.00         9.165
  12.580         46.00         9.592
  12.600         62.00        11.136
  12.620         60.00        10.954
  12.640         74.00        12.166
  12.660         72.00        12.000
  12.680         74.00        12.166
  12.700         90.00        13.416
  12.720         56.00        10.583
  12.740         86.00        13.115
  12.760         50.00        10.000
  12.780         86.00        13.115
  12.800         56.00        10.583
  12.820         46.00         9.592
  12.840         58.00        10.770
  12.860         82.00        12.806
  12.880         82.00        12.806
  12.900         50.00        10.000
  12.920         66.00        11.489
  12.940         46.00         9.592
  12.960         48.00         9.798
  12.980         44.00         9.381
  13.000         66.00        11.489
  13.020         52.00        10.198
  13.040         72.00        12.000
  13.060         36.00         8.485
  13.080         68.00        11.662
  13.100         64.00        11.314
  13.120         70.00        11.832
  13.140         60.00        10.954
  13.160         86.00        13.115
  13.180         44.00         9.381
  13.200         72.00        12.000
  13.220         60.00        10.954
  13.240         34.00         8.246
  13.260         68.00        11.662
  13.280         44.00         9.381
  13.300         42.00         9.165
  13.320         58.00        10.770
  13.340         48.00         9.798
  13.360         56.00        10.583
  13.380         80.00        12.649
  13.400         42.00         9.165
  13.420         42.00         9.165
  13.440         44.00         9.381
  13.460         40.00         8.944
  13.480         58.00        10.770
  13.500         44.00         9.381
  13.520         78.00        12.490
  13.540         72.00        12.000
  13.560         48.00         9.798
  13.580         64.00        11.314
  13.600         60.00        10.954
  13.620         56.00        10.583
  13.640         80.00        12.649
  13.660        102.00        14.283
  13.680         80.00        12.649
  13.700         66.00        11.489
  13.720         54.00        10.392
  13.740         56.00        10.583
  13.760         52.00        10.198
  13.780         64.00        11.314
  13.800         50.00        10.000
  13.820         76.00        12.329
  13.840         62.00        11.136
  13.860         74.00        12.166
  13.880         70.00        11.832
  13.900         74.00        12.166
  13.920         42.00         9.165
  13.940         54.00        10.392
  13.960         64.00        11.314
  13.980         72.00        12.000
  14.000         70.00        11.832
  14.020         78.00        12.490
  14.040         58.00        10.770
  14.060         58.00        10.770
  14.080         68.00        11.662
  14.100         60.00        10.954
  14.120         74.00        12.166
  14.140         58.00        10.770
  14.160         62.00        11.136
  14.180         64.00        11.314
  14.200         42.00         9.165
  14.220         36.00         8.485
  14.240         34.00         8.246
  14.260         58.00        10.770
  14.280         54.00        10.392
  14.300         60.00        10.954
  14.320         48.00         9.798
  14.340         90.00        13.416
  14.360         72.00        12.000
  14.380         48.00         9.798
  14.400         52.00        10.198
  14.420         70.00        11.832
  14.440         72.00        12.000
  14.460         58.00        10.770
  14.480         58.00        10.770
  14.500         60.00        10.954
  14.520         52.00        10.198
  14.540         80.00        12.649
  14.560         76.00        12.329
  14.580         74.00        12.166
  14.600         72.00        12.000
  14.620         72.00        12.000
  14.640         80.00        12.649
  14.660         62.00        11.136
  14.680         36.00         8.485
  14.700         60.00        10.954
  14.720         40.00         8.944
  14.740         54.00        10.392
  14.760         72.00        12.000
  14.780         54.00        10.392
  14.800         70.00        11.832
  14.820         70.00        11.832
  14.840         56.00        10.583
  14.860         90.00        13.416
  14.880         72.00        12.000
  14.900         46.00         9.592
  14.920         46.00         9.592
  14.940         78.00        12.490
  14.960         72.00        12.000
  14.980         50.00        10.000
  15.000         64.00        11.314
  15.020         64.00        11.314
  15.040         60.00        10.954
  15.060         46.00         9.592
  15.080         62.00        11.136
  15.100         64.00        11.314
  15.120         50.00        10.000
  15.140         72.00        12.000
  15.160         54.00        10.392
  15.180         86.00        13.115
  15.200         82.00        12.806
  15.220         38.00         8.718
  15.240         80.00        12.649
  15.260         44.00         9.381
  15.280         76.00        12.329
  15.300         52.00        10.198
  15.320         76.00        12.329
  15.340         46.00         9.592
  15.360         44.00         9.381
  15.380         74.00        12.166
  15.400         58.00        10.770
  15.420         64.00        11.314
  15.440         60.00        10.954
  15.460         30.00         7.746
  15.480         36.00         8.485
  15.500         18.00         6.000
  15.520         82.00        12.806
  15.540         46.00         9.592
  15.560         62.00        11.136
  15.580         72.00        12.000
  15.600         74.00        12.166
  15.620         58.00        10.770
  15.640         90.00        13.416
  15.660         58.00        10.770
  15.680         44.00         9.381
  15.700         54.00        10.392
  15.720         66.00        11.489
  15.740         80.00        12.649
  15.760         62.00        11.136
  15.780         54.00        10.392
  15.800         54.00        10.392
  15.820         52.00        10.198
  15.840         68.00        11.662
  15.860         52.00        10.198
  15.880         62.00        11.136
  15.900         84.00        12.961
  15.920         76.00        12.329
  15.940         54.00        10.392
  15.960         52.00        10.198
  15.980         56.00        10.583
  16.000         48.00         9.798
  16.020         94.00        13.711
  16.040        100.00        14.142
  16.060         72.00        12.000
  16.080         40.00         8.944
  16.100         56.00        10.583
  16.120         62.00        11.136
  16.140         84.00        12.961
  16.160         58.00        10.770
  16.180         76.00        12.329
  16.200         44.00         9.381
  16.220         46.00         9.592
  16.240         58.00        10.770
  16.260         36.00         8.485
  16.280         70.00        11.832
  16.300         48.00         9.798
  16.320         52.00        10.198
  16.340         56.00        10.583
  16.360         42.00         9.165
  16.380         30.00         7.746
  16.400         78.00        12.490
  16.420         72.00        12.000
  16.440         56.00        10.583
  16.460         76.00        12.329
  16.480         46.00         9.592
  16.500         32.00         8.000
  16.520         64.00        11.314
  16.540         38.00         8.718
  16.560         66.00        11.489
  16.580         56.00        10.583
  16.600         66.00        11.489
  16.620         56.00        10.583
  16.640         64.00        11.314
  16.660         50.00        10.000
  16.680         66.00        11.489
  16.700         42.00         9.165
  16.720         58.00        10.770
  16.740         62.00        11.136
  16.760         80.00        12.649
  16.780         70.00        11.832
  16.800         56.00        10.583
  16.820         74.00        12.166
  16.840         44.00         9.381
  16.860         28.00         7.483
  16.880         64.00        11.314
  16.900         88.00        13.266
  16.920         60.00        10.954
  16.940         62.00        11.136
  16.960         40.00         8.944
  16.980         70.00        11.832
  17.000         70.00        11.832
  17.020        102.00        14.283
  17.040         56.00        10.583
  17.060         62.00        11.136
  17.080         74.00        12.166
  17.100         86.00        13.115
  17.120         74.00        12.166
  17.140         50.00        10.000
  17.160         78.00        12.490
  17.180         86.00        13.115
  17.200         50.00        10.000
  17.220         62.00        11.136
  17.240         78.00        12.490
  17.260         44.00         9.381
  17.280         90.00        13.416
  17.300         74.00        12.166
  17.320         70.00        11.832
  17.340         64.00        11.314
  17.360         60.00        10.954
  17.380        122.00        15.620
  17.400         80.00        12.649
  17.420         40.00         8.944
  17.440         74.00        12.166
  17.460         58.00        10.770
  17.480         44.00         9.381
  17.500         72.00        12.000
  17.520         74.00        12.166
  17.540         92.00        13.565
  17.560         66.00        11.489
  17.580         32.00         8.000
  17.600         66.00        11.489
  17.620         78.00        12.490
  17.640         92.00        13.565
  17.660         56.00        10.583
  17.680         66.00        11.489
  17.700         48.00         9.798
  17.720         78.00        12.490
  17.740         64.00        11.314
  17.760         70.00        11.832
  17.780         82.00        12.806
  17.800         58.00        10.770
  17.820         94.00        13.711
  17.840         70.00        11.832
  17.860         54.00        10.392
  17.880         72.00        12.000
  17.900         80.00        12.649
  17.920         84.00        12.961
  17.940         44.00         9.381
  17.960         88.00        13.266
  17.980        108.00        14.697
  18.000         54.00        10.392
  18.020         40.00         8.944
  18.040         70.00        11.832
  18.060         44.00         9.381
  18.080         90.00        13.416
  18.100         58.00        10.770
  18.120         70.00        11.832
  18.140         96.00        13.856
  18.160         52.00        10.198
  18.180         84.00        12.961
  18.200         76.00        12.329
  18.220         50.00        10.000
  18.240        100.00        14.142
  18.260         84.00        12.961
  18.280         88.00        13.266
  18.300         74.00        12.166
  18.320         58.00        10.770
  18.340         70.00        11.832
  18.360         88.00        13.266
  18.380         42.00         9.165
  18.400        108.00        14.697
  18.420         96.00        13.856
  18.440         56.00        10.583
  18.460         82.00        12.806
  18.480         84.00        12.961
  18.500        134.00        16.371
  18.520         64.00        11.314
  18.540         60.00        10.954
  18.560         78.00        12.490
  18.580         88.00        13.266
  18.600         68.00        11.662
  18.620         82.00        12.806
  18.640         80.00        12.649
  18.660        112.00        14.967
  18.680         96.00        13.856
  18.700         90.00        13.416
  18.720         68.00        11.662
  18.740         62.00        11.136
  18.760         86.00        13.115
  18.780         92.00        13.565
  18.800         84.00        12.961
  18.820         68.00        11.662
  18.840         68.00        11.662
  18.860         80.00        12.649
  18.880         60.00        10.954
  18.900         62.00        11.136
  18.920        100.00        14.142
  18.940         46.00         9.592
  18.960         52.00        10.198
  18.980         74.00        12.166
  19.000         72.00        12.000
  19.020         78.00        12.490
  19.040         52.00        10.198
  19.060         60.00        10.954
  19.080         64.00        11.314
  19.100         68.00        11.662
  19.120         86.00        13.115
  19.140        112.00        14.967
  19.160         70.00        11.832
  19.180         52.00        10.198
  19.200         60.00        10.954
  19.220         70.00        11.832
  19.240         72.00        12.000
  19.260         78.00        12.490
  19.280         72.00        12.000
  19.300         86.00        13.115
  19.320        104.00        14.422
  19.340         84.00        12.961
  19.360         92.00        13.565
  19.380         72.00        12.000
  19.400         48.00         9.798
  19.420         88.00        13.266
  19.440         72.00        12.000
  19.460        102.00        14.283
  19.480         86.00        13.115
  19.500         78.00        12.490
  19.520         94.00        13.711
  19.540         90.00        13.416
  19.560         72.00        12.000
  19.580         68.00        11.662
  19.600         58.00        10.770
  19.620         94.00        13.711
  19.640         76.00        12.329
  19.660         96.00        13.856
  19.680        108.00        14.697
  19.700         82.00        12.806
  19.720         46.00         9.592
  19.740         70.00        11.832
  19.760         96.00        13.856
  19.780         98.00        14.000
  19.800         60.00        10.954
  19.820         70.00        11.832
  19.840         90.00        13.416
  19.860         42.00         9.165
  19.880         80.00        12.649
  19.900         70.00        11.832
  19.920         66.00        11.489
  19.940         50.00        10.000
  19.960         72.00        12.000
  19.980         70.00        11.832
  20.000         66.00        11.489
  20.020         74.00        12.166
  20.040         84.00        12.961
  20.060         78.00        12.490
  20.080         88.00        13.266
  20.100        134.00        16.371
  20.120         88.00        13.266
  20.140        142.00        16.852
  20.160         94.00        13.711
  20.180        114.00        15.100
  20.200         66.00        11.489
  20.220        104.00        14.422
  20.240         60.00        10.954
  20.260         72.00        12.000
  20.280         76.00        12.329
  20.300         98.00        14.000
  20.320         66.00        11.489
  20.340         82.00        12.806
  20.360         90.00        13.416
  20.380         78.00        12.490
  20.400         72.00        12.000
  20.420        106.00        14.560
  20.440         96.00        13.856
  20.460         82.00        12.806
  20.480        110.00        14.832
  20.500         52.00        10.198
  20.520         80.00        12.649
  20.540         78.00        12.490
  20.560         98.00        14.000
  20.580        112.00        14.967
  20.600         76.00        12.329
  20.620         46.00         9.592
  20.640         70.00        11.832
  20.660         44.00         9.381
  20.680         74.00        12.166
  20.700         98.00        14.000
  20.720         94.00        13.711
  20.740         92.00        13.565
  20.760         74.00        12.166
  20.780        134.00        16.371
  20.800         80.00        12.649
  20.820        154.00        17.550
  20.840        116.00        15.232
  20.860         86.00        13.115
  20.880         84.00        12.961
  20.900         96.00        13.856
  20.920        106.00        14.560
  20.940         72.00        12.000
  20.960         78.00        12.490
  20.980         72.00        12.000
  21.000         92.00        13.565
  21.020         76.00        12.329
  21.040         78.00        12.490
  21.060        146.00        17.088
  21.080         60.00        10.954
  21.100         76.00        12.329
  21.120         84.00        12.961
  21.140         60.00        10.954
  21.160        106.00        14.560
  21.180         66.00        11.489
  21.200         92.00        13.565
  21.220        110.00        14.832
  21.240        108.00        14.697
  21.260        102.00        14.283
  21.280        130.00        16.125
  21.300         52.00        10.198
  21.320         88.00        13.266
  21.340         52.00        10.198
  21.360         68.00        11.662
  21.380         96.00        13.856
  21.400         80.00        12.649
  21.420         98.00        14.000
  21.440        102.00        14.283
  21.460        128.00        16.000
  21.480         94.00        13.711
  21.500         82.00        12.806
  21.520         62.00        11.136
  21.540        158.00        17.776
  21.560         96.00        13.856
  21.580        106.00        14.560
  21.600         60.00        10.954
  21.620         76.00        12.329
  21.640        100.00        14.142
  21.660         38.00         8.718
  21.680        114.00        15.100
  21.700         76.00        12.329
  21.720         88.00        13.266
  21.740         82.00        12.806
  21.760         74.00        12.166
  21.780         88.00        13.266
  21.800         86.00        13.115
  21.820         52.00        10.198
  21.840         96.00        13.856
  21.860         88.00        13.266
  21.880         86.00        13.115
  21.900         90.00        13.416
  21.920         90.00        13.416
  21.940         92.00        13.565
  21.960        120.00        15.492
  21.980         78.00        12.490
  22.000         76.00        12.329
  22.020         90.00        13.416
  22.040         62.00        11.136
  22.060         74.00        12.166
  22.080         66.00        11.489
  22.100         86.00        13.115
  22.120         98.00        14.000
  22.140        106.00        14.560
  22.160         98.00        14.000
  22.180         98.00        14.000
  22.200         90.00        13.416
  22.220        100.00        14.142
  22.240         94.00        13.711
  22.260         76.00        12.329
  22.280         82.00        12.806
  22.300        110.00        14.832
  22.320         62.00        11.136
  22.340         60.00        10.954
  22.360        102.00        14.283
  22.380         72.00        12.000
  22.400         44.00         9.381
  22.420         54.00        10.392
  22.440         82.00        12.806
  22.460        106.00        14.560
  22.480        104.00        14.422
  22.500         58.00        10.770
  22.520         90.00        13.416
  22.540        110.00        14.832
  22.560        118.00        15.362
  22.580         66.00        11.489
  22.600         60.00        10.954
  22.620        158.00        17.776
  22.640         74.00        12.166
  22.660        102.00        14.283
  22.680        122.00        15.620
  22.700         84.00        12.961
  22.720         72.00        12.000
  22.740         38.00         8.718
  22.760         94.00        13.711
  22.780         76.00        12.329
  22.800        102.00        14.283
  22.820         74.00        12.166
  22.840        108.00        14.697
  22.860         76.00        12.329
  22.880         72.00        12.000
  22.900         54.00        10.392
  22.920         92.00        13.565
  22.940         84.00        12.961
  22.960         78.00        12.490
  22.980         52.00        10.198
  23.000        100.00        14.142
  23.020         92.00        13.565
  23.040         78.00        12.490
  23.060         60.00        10.954
  23.080         96.00        13.856
  23.100        126.00        15.875
  23.120        118.00        15.362
  23.140         70.00        11.832
  23.160        102.00        14.283
  23.180         96.00        13.856
  23.200         70.00        11.832
  23.220         76.00        12.329
  23.240         80.00        12.649
  23.260         78.00        12.490
  23.280         84.00        12.961
  23.300         46.00         9.592
  23.320         76.00        12.329
  23.340         98.00        14.000
  23.360         82.00        12.806
  23.380         46.00         9.592
  23.400         70.00        11.832
  23.420         72.00        12.000
  23.440         64.00        11.314
  23.460         90.00        13.416
  23.480         86.00        13.115
  23.500        106.00        14.560
  23.520         98.00        14.000
  23.540        140.00        16.733
  23.560         82.00        12.806
  23.580         56.00        10.583
  23.600         78.00        12.490
  23.620         56.00        10.583
  23.640        104.00        14.422
  23.660         54.00        10.392
  23.680         72.00        12.000
  23.700         78.00        12.490
  23.720         62.00        11.136
  23.740         66.00        11.489
  23.760         46.00         9.592
  23.780         96.00        13.856
  23.800         80.00        12.649
  23.820         80.00        12.649
  23.840         66.00        11.489
  23.860         62.00        11.136
  23.880        104.00        14.422
  23.900         68.00        11.662
  23.920         72.00        12.000
  23.940         86.00        13.115
  23.960         68.00        11.662
  23.980        110.00        14.832
  24.000        102.00        14.283
  24.020         72.00        12.000
  24.040         82.00        12.806
  24.060         50.00        10.000
  24.080         62.00        11.136
  24.100         70.00        11.832
  24.120         86.00        13.115
  24.140         82.00        12.806
  24.160         72.00        12.000
  24.180         74.00        12.166
  24.200         76.00        12.329
  24.220         82.00        12.806
  24.240         82.00        12.806
  24.260         44.00         9.381
  24.280        102.00        14.283
  24.300         92.00        13.565
  24.320         84.00        12.961
  24.340        118.00        15.362
  24.360         82.00        12.806
  24.380         68.00        11.662
  24.400         84.00        12.961
  24.420         76.00        12.329
  24.440         76.00        12.329
  24.460         84.00        12.961
  24.480         76.00        12.329
  24.500         78.00        12.490
  24.520         80.00        12.649
  24.540         80.00        12.649
  24.560         76.00        12.329
  24.580         88.00        13.266
  24.600         90.00        13.416
  24.620         84.00        12.961
  24.640         46.00         9.592
  24.660         68.00        11.662
  24.680        114.00        15.100
  24.700         92.00        13.565
  24.720         70.00        11.832
  24.740        104.00        14.422
  24.760         64.00        11.314
  24.780         62.00        11.136
  24.800         60.00        10.954
  24.820         42.00         9.165
  24.840         90.00        13.416
  24.860         78.00        12.490
  24.880         90.00        13.416
  24.900        100.00        14.142
  24.920         56.00        10.583
  24.940         70.00        11.832
  24.960         46.00         9.592
  24.980        110.00        14.832
  25.000         80.00        12.649
  25.020         58.00        10.770
  25.040         76.00        12.329
  25.060         58.00        10.770
  25.080         80.00        12.649
  25.100         60.00        10.954
  25.120         56.00        10.583
  25.140         68.00        11.662
  25.160         68.00        11.662
  25.180        100.00        14.142
  25.200         64.00        11.314
  25.220         36.00         8.485
  25.240        108.00        14.697
  25.260         48.00         9.798
  25.280         50.00        10.000
  25.300         92.00        13.565
  25.320         70.00        11.832
  25.340        102.00        14.283
  25.360         70.00        11.832
  25.380         44.00         9.381
  25.400         70.00        11.832
  25.420         66.00        11.489
  25.440         74.00        12.166
  25.460        108.00        14.697
  25.480         44.00         9.381
  25.500         74.00        12.166
  25.520         70.00        11.832
  25.540        108.00        14.697
  25.560         76.00        12.329
  25.580         88.00        13.266
  25.600         68.00        11.662
  25.620         80.00        12.649
  25.640         88.00        13.266
  25.660         64.00        11.314
  25.680         80.00        12.649
  25.700         92.00        13.565
  25.720         76.00        12.329
  25.740         82.00        12.806
  25.760         90.00        13.416
  25.780         56.00        10.583
  25.800         84.00        12.961
  25.820        100.00        14.142
  25.840         58.00        10.770
  25.860         72.00        12.000
  25.880         78.00        12.490
  25.900         78.00        12.490
  25.920         92.00        13.565
  25.940         46.00         9.592
  25.960         54.00        10.392
  25.980         60.00        10.954
  26.000         78.00        12.490
  26.020         72.00        12.000
  26.040         46.00         9.592
  26.060         54.00        10.392
  26.080         74.00        12.166
  26.100         56.00        10.583
  26.120         58.00        10.770
  26.140         42.00         9.165
  26.160         82.00        12.806
  26.180         80.00        12.649
  26.200         64.00        11.314
  26.220         72.00        12.000
  26.240         42.00         9.165
  26.260         36.00         8.485
  26.280         86.00        13.115
  26.300         94.00        13.711
  26.320         62.00        11.136
  26.340         60.00        10.954
  26.360         72.00        12.000
  26.380         72.00        12.000
  26.400         52.00        10.198
  26.420        138.00        16.613
  26.440         64.00        11.314
  26.460         80.00        12.649
  26.480         52.00        10.198
  26.500         72.00        12.000
  26.520         58.00        10.770
  26.540         48.00         9.798
  26.560         60.00        10.954
  26.580         60.00        10.954
  26.600         80.00        12.649
  26.620         50.00        10.000
  26.640         66.00        11.489
  26.660         52.00        10.198
  26.680         68.00        11.662
  26.700         60.00        10.954
  26.720         56.00        10.583
  26.740         76.00        12.329
  26.760         46.00         9.592
  26.780         78.00        12.490
  26.800         60.00        10.954
  26.820         54.00        10.392
  26.840         68.00        11.662
  26.860         26.00         7.211
  26.880         38.00         8.718
  26.900         58.00        10.770
  26.920         58.00        10.770
  26.940         56.00        10.583
  26.960         64.00        11.314
  26.980         56.00        10.583
  27.000         58.00        10.770
  27.020         80.00        12.649
  27.040         56.00        10.583
  27.060         44.00         9.381
  27.080         56.00        10.583
  27.100         42.00         9.165
  27.120         56.00        10.583
  27.140         38.00         8.718
  27.160         52.00        10.198
  27.180         28.00         7.483
  27.200         56.00        10.583
  27.220         46.00         9.592
  27.240         96.00        13.856
  27.260         76.00        12.329
  27.280         40.00         8.944
  27.300         42.00         9.165
  27.320         66.00        11.489
  27.340         72.00        12.000
  27.360         54.00        10.392
  27.380         40.00         8.944
  27.400         64.00        11.314
  27.420         44.00         9.381
  27.440         56.00        10.583
  27.460         92.00        13.565
  27.480         92.00        13.565
  27.500         70.00        11.832
  27.520         64.00        11.314
  27.540         86.00        13.115
  27.560         62.00        11.136
  27.580         38.00         8.718
  27.600         40.00         8.944
  27.620         56.00        10.583
  27.640         62.00        11.136
  27.660         68.00        11.662
  27.680         60.00        10.954
  27.700         98.00        14.000
  27.720         76.00        12.329
  27.740         28.00         7.483
  27.760         60.00        10.954
  27.780         52.00        10.198
  27.800         58.00        10.770
  27.820         72.00        12.000
  27.840         46.00         9.592
  27.860         52.00        10.198
  27.880         60.00        10.954
  27.900         46.00         9.592
  27.920         46.00         9.592
  27.940         50.00        10.000
  27.960         70.00        11.832
  27.980         36.00         8.485
  28.000         46.00         9.592
  28.020         46.00         9.592
  28.040         42.00         9.165
  28.060         78.00        12.490
  28.080         50.00        10.000
  28.100         68.00        11.662
  28.120         64.00        11.314
  28.140         78.00        12.490
  28.160         54.00        10.392
  28.180         58.00        10.770
  28.200         66.00        11.489
  28.220         62.00        11.136
  28.240         38.00         8.718
  28.260         68.00        11.662
  28.280         34.00         8.246
  28.300         44.00         9.381
  28.320         48.00         9.798
  28.340         54.00        10.392
  28.360         68.00        11.662
  28.380         36.00         8.485
  28.400         54.00        10.392
  28.420         68.00        11.662
  28.440         66.00        11.489
  28.460         78.00        12.490
  28.480         78.00        12.490
  28.500         48.00         9.798
  28.520         40.00         8.944
  28.540         62.00        11.136
  28.560         80.00        12.649
  28.580         48.00         9.798
  28.600         48.00         9.798
  28.620         40.00         8.944
  28.640         50.00        10.000
  28.660         56.00        10.583
  28.680         58.00        10.770
  28.700         60.00        10.954
  28.720         62.00        11.136
  28.740         54.00        10.392
  28.760         54.00        10.392
  28.780         62.00        11.136
  28.800         74.00        12.166
  28.820         50.00        10.000
  28.840         64.00        11.314
  28.860         34.00         8.246
  28.880         54.00        10.392
  28.900         38.00         8.718
  28.920         52.00        10.198
  28.940         46.00         9.592
  28.960         34.00         8.246
  28.980         66.00        11.489
  29.000         58.00        10.770
  29.020         46.00         9.592
  29.040         64.00        11.314
  29.060         68.00        11.662
  29.080         42.00         9.165
  29.100         12.00         4.899
  29.120         32.00         8.000
  29.140         74.00        12.166
  29.160         54.00        10.392
  29.180         40.00         8.944
  29.200         66.00        11.489
  29.220         30.00         7.746
  29.240         80.00        12.649
  29.260         68.00        11.662
  29.280         36.00         8.485
  29.300         40.00         8.944
  29.320         54.00        10.392
  29.340         30.00         7.746
  29.360         42.00         9.165
  29.380         18.00         6.000
  29.400         56.00        10.583
  29.420         36.00         8.485
  29.440         38.00         8.718
  29.460         48.00         9.798
  29.480         42.00         9.165
  29.500         42.00         9.165
  29.520         30.00         7.746
  29.540         80.00        12.649
  29.560         44.00         9.381
  29.580         38.00         8.718
  29.600         42.00         9.165
  29.620         52.00        10.198
  29.640         44.00         9.381
  29.660         18.00         6.000
  29.680         54.00        10.392
  29.700         30.00         7.746
  29.720         38.00         8.718
  29.740         80.00        12.649
  29.760         38.00         8.718
  29.780         46.00         9.592
  29.800         40.00         8.944
  29.820         52.00        10.198
  29.840         40.00         8.944
  29.860         42.00         9.165
  29.880         60.00        10.954
  29.900         18.00         6.000
  29.920         48.00         9.798
  29.940         48.00         9.798
  29.960         28.00         7.483
  29.980         24.00         6.928
  30.000         74.00        12.166
  30.020         84.00        12.961
  30.040         52.00        10.198
  30.060         78.00        12.490
  30.080         50.00        10.000
  30.100         50.00        10.000
  30.120         66.00        11.489
  30.140         34.00         8.246
  30.160         50.00        10.000
  30.180         82.00        12.806
  30.200         38.00         8.718
  30.220         62.00        11.136
  30.240         62.00        11.136
  30.260         42.00         9.165
  30.280         66.00        11.489
  30.300         28.00         7.483
  30.320         46.00         9.592
  30.340         92.00        13.565
  30.360         44.00         9.381
  30.380         20.00         6.325
  30.400         52.00        10.198
  30.420         48.00         9.798
  30.440         48.00         9.798
  30.460         64.00        11.314
  30.480         46.00         9.592
  30.500         42.00         9.165
  30.520         34.00         8.246
  30.540         56.00        10.583
  30.560         46.00         9.592
  30.580         40.00         8.944
  30.600         50.00        10.000
  30.620         42.00         9.165
  30.640         58.00        10.770
  30.660         32.00         8.000
  30.680         36.00         8.485
  30.700         78.00        12.490
  30.720         44.00         9.381
  30.740         50.00        10.000
  30.760         42.00         9.165
  30.780         40.00         8.944
  30.800         44.00         9.381
  30.820         52.00        10.198
  30.840         34.00         8.246
  30.860         64.00        11.314
  30.880         46.00         9.592
  30.900         24.00         6.928
  30.920         36.00         8.485
  30.940         70.00        11.832
  30.960         42.00         9.165
  30.980         34.00         8.246
  31.000         38.00         8.718
  31.020         44.00         9.381
  31.040         50.00        10.000
  31.060         40.00         8.944
  31.080         38.00         8.718
  31.100        106.00        14.560
  31.120         72.00        12.000
  31.140         74.00        12.166
  31.160         60.00        10.954
  31.180         56.00        10.583
  31.200         38.00         8.718
  31.220         60.00        10.954
  31.240         68.00        11.662
  31.260         42.00         9.165
  31.280         48.00         9.798
  31.300         56.00        10.583
  31.320         54.00        10.392
  31.340         78.00        12.490
  31.360         30.00         7.746
  31.380         24.00         6.928
  31.400         36.00         8.485
  31.420         14.00         5.292
  31.440         42.00         9.165
  31.460         44.00         9.381
  31.480         30.00         7.746
  31.500         72.00        12.000
  31.520         48.00         9.798
  31.540        112.00        14.967
  31.560         54.00        10.392
  31.580         44.00         9.381
  31.600         58.00        10.770
  31.620         46.00         9.592
  31.640         42.00         9.165
  31.660         16.00         5.657
  31.680         50.00        10.000
  31.700         52.00        10.198
  31.720         50.00        10.000
  31.740         56.00        10.583
  31.760         32.00         8.000
  31.780         32.00         8.000
  31.800         32.00         8.000
  31.820         40.00         8.944
  31.840         48.00         9.798
  31.860         70.00        11.832
  31.880         36.00         8.485
  31.900         50.00        10.000
  31.920         44.00         9.381
  31.940         46.00         9.592
  31.960         56.00        10.583
  31.980         46.00         9.592
  32.000         38.00         8.718
  32.020         20.00         6.325
  32.040         44.00         9.381
  32.060         26.00         7.211
  32.080         46.00         9.592
  32.100         76.00        12.329
  32.120         28.00         7.483
  32.140         46.00         9.592
  32.160         46.00         9.592
  32.180         22.00         6.633
  32.200         36.00         8.485
  32.220         54.00        10.392
  32.240         66.00        11.489
  32.260         68.00        11.662
  32.280         50.00        10.000
  32.300         62.00        11.136
  32.320         50.00        10.000
  32.340         22.00         6.633
  32.360         52.00        10.198
  32.380         12.00         4.899
  32.400         60.00        10.954
  32.420         68.00        11.662
  32.440         26.00         7.211
  32.460         52.00        10.198
  32.480         28.00         7.483
  32.500         28.00         7.483
  32.520         34.00         8.246
  32.540         20.00         6.325
  32.560         40.00         8.944
  32.580         60.00        10.954
  32.600         36.00         8.485
  32.620         14.00         5.292
  32.640         38.00         8.718
  32.660         40.00         8.944
  32.680         32.00         8.000
  32.700         24.00         6.928
  32.720         22.00         6.633
  32.740         24.00         6.928
  32.760         40.00         8.944
  32.780         20.00         6.325
  32.800         34.00         8.246
  32.820         48.00         9.798
  32.840         42.00         9.165
  32.860         28.00         7.483
  32.880         36.00         8.485
  32.900         22.00         6.633
  32.920         22.00         6.633
  32.940         44.00         9.381
  32.960         38.00         8.718
  32.980         14.00         5.292
  33.000         28.00         7.483
  33.020         30.00         7.746
  33.040         26.00         7.211
  33.060         70.00        11.832
  33.080         38.00         8.718
  33.100         68.00        11.662
  33.120         48.00         9.798
  33.140         28.00         7.483
  33.160         34.00         8.246
  33.180         24.00         6.928
  33.200         34.00         8.246
  33.220         38.00         8.718
  33.240         42.00         9.165
  33.260         28.00         7.483
  33.280         32.00         8.000
  33.300         58.00        10.770
  33.320         34.00         8.246
  33.340         40.00         8.944
  33.360         30.00         7.746
  33.380          8.00         4.000
  33.400         38.00         8.718
  33.420         32.00         8.000
  33.440         38.00         8.718
  33.460          4.00         2.828
  33.480         62.00        11.136
  33.500         50.00        10.000
  33.520         40.00         8.944
  33.540         46.00         9.592
  33.560         32.00         8.000
  33.580         40.00         8.944
  33.600         52.00        10.198
  33.620         58.00        10.770
  33.640         40.00         8.944
  33.660         46.00         9.592
  33.680         30.00         7.746
  33.700         58.00        10.770
  33.720         38.00         8.718
  33.740         14.00         5.292
  33.760         48.00         9.798
  33.780         46.00         9.592
  33.800         36.00         8.485
  33.820         34.00         8.246
  33.840         26.00         7.211
  33.860         20.00         6.325
  33.880         18.00         6.000
  33.900         20.00         6.325
  33.920         10.00         4.472
  33.940         24.00         6.928
  33.960         32.00         8.000
  33.980         44.00         9.381
  34.000         28.00         7.483
  34.020         30.00         7.746
  34.040         28.00         7.483
  34.060         18.00         6.000
  34.080         40.00         8.944
  34.100         70.00        11.832
  34.120         32.00         8.000
  34.140         48.00         9.798
  34.160         40.00         8.944
  34.180         34.00         8.246
  34.200         20.00         6.325
  34.220         22.00         6.633
  34.240         38.00         8.718
  34.260         38.00         8.718
  34.280         22.00         6.633
  34.300         60.00        10.954
  34.320         42.00         9.165
  34.340         18.00         6.000
  34.360         38.00         8.718
  34.380         50.00        10.000
  34.400         20.00         6.325
  34.420         42.00         9.165
  34.440         26.00         7.211
  34.460         40.00         8.944
  34.480         34.00         8.246
  34.500         18.00         6.000
  34.520         36.00         8.485
  34.540         28.00         7.483
  34.560         46.00         9.592
  34.580         28.00         7.483
  34.600         38.00         8.718
  34.620         52.00        10.198
  34.640         66.00        11.489
  34.660         40.00         8.944
  34.680         38.00         8.718
  34.700         52.00        10.198
  34.720         56.00        10.583
  34.740         60.00        10.954
  34.760         86.00        13.115
  34.780         58.00        10.770
  34.800         74.00        12.166
  34.820         38.00         8.718
  34.840         58.00        10.770
  34.860         46.00         9.592
  34.880         60.00        10.954
  34.900         30.00         7.746
  34.920         44.00         9.381
  34.940         36.00         8.485
  34.960         34.00         8.246
  34.980         50.00        10.000
  35.000         32.00         8.000
  35.020         20.00         6.325
  35.040         32.00         8.000
  35.060         38.00         8.718
  35.080         32.00         8.000
  35.100         42.00         9.165
  35.120         50.00        10.000
  35.140         26.00         7.211
  35.160         18.00         6.000
  35.180         36.00         8.485
  35.200         26.00         7.211
  35.220         18.00         6.000
  35.240         16.00         5.657
  35.260         28.00         7.483
  35.280         40.00         8.944
  35.300         24.00         6.928
  35.320         30.00         7.746
  35.340         22.00         6.633
  35.360         30.00         7.746
  35.380         30.00         7.746
  35.400         20.00         6.325
  35.420         22.00         6.633
  35.440         36.00         8.485
  35.460         32.00         8.000
  35.480         12.00         4.899
  35.500         22.00         6.633
  35.520         32.00         8.000
  35.540         32.00         8.000
  35.560         28.00         7.483
  35.580         24.00         6.928
  35.600         18.00         6.000
  35.620         10.00         4.472
  35.640         28.00         7.483
  35.660         24.00         6.928
  35.680         40.00         8.944
  35.700         52.00        10.198
  35.720         34.00         8.246
  35.740         32.00         8.000
  35.760         34.00         8.246
  35.780         16.00         5.657
  35.800         26.00         7.211
  35.820         38.00         8.718
  35.840         54.00        10.392
  35.860         30.00         7.746
  35.880         34.00         8.246
  35.900         22.00         6.633
  35.920         26.00         7.211
  35.940         42.00         9.165
  35.960         28.00         7.483
  35.980         34.00         8.246
  36.000         28.00         7.483
  36.020         28.00         7.483
  36.040         50.00        10.000
  36.060         32.00         8.000
  36.080         14.00         5.292
  36.100         60.00        10.954
  36.120         32.00         8.000
  36.140         32.00         8.000
  36.160         26.00         7.211
  36.180         56.00        10.583
  36.200         40.00         8.944
  36.220         28.00         7.483
  36.240         22.00         6.633
  36.260          6.00         3.464
  36.280         12.00         4.899
  36.300         32.00         8.000
  36.320         30.00         7.746
  36.340         14.00         5.292
  36.360         26.00         7.211
  36.380         34.00         8.246
  36.400         22.00         6.633
  36.420         28.00         7.483
  36.440         28.00         7.483
  36.460         38.00         8.718
  36.480         28.00         7.483
  36.500         24.00         6.928
  36.520         28.00         7.483
  36.540         40.00         8.944
  36.560         30.00         7.746
  36.580         44.00         9.381
  36.600         28.00         7.483
  36.620         20.00         6.325
  36.640         40.00         8.944
  36.660         58.00        10.770
  36.680         38.00         8.718
  36.700         30.00         7.746
  36.720         34.00         8.246
  36.740         20.00         6.325
  36.760         34.00         8.246
  36.780         24.00         6.928
  36.800         24.00         6.928
  36.820         34.00         8.246
  36.840         40.00         8.944
  36.860         20.00         6.325
  36.880         32.00         8.000
  36.900         80.00        12.649
  36.920         18.00         6.000
  36.940         28.00         7.483
  36.960         42.00         9.165
  36.980         64.00        11.314
  37.000         24.00         6.928
  37.020         20.00         6.325
  37.040         12.00         4.899
  37.060         18.00         6.000
  37.080         28.00         7.483
  37.100         40.00         8.944
  37.120         42.00         9.165
  37.140         12.00         4.899
  37.160         34.00         8.246
  37.180         20.00         6.325
  37.200         42.00         9.165
  37.220         16.00         5.657
  37.240         18.00         6.000
  37.260          6.00         3.464
  37.280         26.00         7.211
  37.300         40.00         8.944
  37.320         38.00         8.718
  37.340         20.00         6.325
  37.360         32.00         8.000
  37.380         30.00         7.746
  37.400         16.00         5.657
  37.420         20.00         6.325
  37.440         74.00        12.166
  37.460         26.00         7.211
  37.480         60.00        10.954
  37.500         12.00         4.899
  37.520         30.00         7.746
  37.540         22.00         6.633
  37.560         44.00         9.381
  37.580         24.00         6.928
  37.600         16.00         5.657
  37.620          6.00         3.464
  37.640         14.00         5.292
  37.660         28.00         7.483
  37.680         34.00         8.246
  37.700         28.00         7.483
  37.720         26.00         7.211
  37.740         12.00         4.899
  37.760         34.00         8.246
  37.780         30.00         7.746
  37.800         48.00         9.798
  37.820         28.00         7.483
  37.840         34.00         8.246
  37.860         40.00         8.944
  37.880         26.00         7.211
  37.900         14.00         5.292
  37.920         40.00         8.944
  37.940         24.00         6.928
  37.960         38.00         8.718
  37.980         22.00         6.633
  38.000         22.00         6.633
  38.020         30.00         7.746
  38.040         42.00         9.165
  38.060         30.00         7.746
  38.080         24.00         6.928
  38.100         14.00         5.292
  38.120         22.00         6.633
  38.140         24.00         6.928
  38.160         28.00         7.483
  38.180         30.00         7.746
  38.200         32.00         8.000
  38.220         22.00         6.633
  38.240         40.00         8.944
  38.260         48.00         9.798
  38.280         26.00         7.211
  38.300         12.00         4.899
  38.320         32.00         8.000
  38.340         30.00         7.746
  38.360         38.00         8.718
  38.380         44.00         9.381
  38.400         42.00         9.165
  38.420         20.00         6.325
  38.440         14.00         5.292
  38.460         20.00         6.325
  38.480         12.00         4.899
  38.500         62.00        11.136
  38.520         42.00         9.165
  38.540         22.00         6.633
  38.560         36.00         8.485
  38.580         38.00         8.718
  38.600         30.00         7.746
  38.620         26.00         7.211
  38.640         42.00         9.165
  38.660         28.00         7.483
  38.680         28.00         7.483
  38.700         64.00        11.314
  38.720         62.00        11.136
  38.740         46.00         9.592
  38.760         70.00        11.832
  38.780         74.00        12.166
  38.800         66.00        11.489
  38.820        102.00        14.283
  38.840        116.00        15.232
  38.860        122.00        15.620
  38.880        146.00        17.088
  38.900        198.00        19.900
  38.920        178.00        18.868
  38.940        214.00        20.688
  38.960        222.00        21.071
  38.980        200.00        20.000
  39.000        140.00        16.733
  39.020        130.00        16.125
  39.040        122.00        15.620
  39.060        124.00        15.748
  39.080         90.00        13.416
  39.100        102.00        14.283
  39.120         68.00        11.662
  39.140         72.00        12.000
  39.160         44.00         9.381
  39.180         58.00        10.770
  39.200         58.00        10.770
  39.220         26.00         7.211
  39.240         36.00         8.485
  39.260         50.00        10.000
  39.280         46.00         9.592
  39.300         38.00         8.718
  39.320         38.00         8.718
  39.340         42.00         9.165
  39.360         26.00         7.211
  39.380         30.00         7.746
  39.400         26.00         7.211
  39.420         34.00         8.246
  39.440         32.00         8.000
  39.460         56.00        10.583
  39.480         62.00        11.136
  39.500         42.00         9.165
  39.520         60.00        10.954
  39.540         42.00         9.165
  39.560         72.00        12.000
  39.580         36.00         8.485
  39.600         72.00        12.000
  39.620         98.00        14.000
  39.640         76.00        12.329
  39.660         68.00        11.662
  39.680        110.00        14.832
  39.700        120.00        15.492
  39.720        112.00        14.967
  39.740        136.00        16.492
  39.760        144.00        16.971
  39.780        104.00        14.422
  39.800        120.00        15.492
  39.820        138.00        16.613
  39.840        104.00        14.422
  39.860         82.00        12.806
  39.880         90.00        13.416
  39.900         78.00        12.490
  39.920         70.00        11.832
  39.940         30.00         7.746
  39.960         68.00        11.662
  39.980         62.00        11.136
  40.000         36.00         8.485
  40.020         40.00         8.944
  40.040         24.00         6.928
  40.060         34.00         8.246
  40.080         32.00         8.000
  40.100         38.00         8.718
  40.120         44.00         9.381
  40.140         38.00         8.718
  40.160         22.00         6.633
  40.180         30.00         7.746
  40.200         26.00         7.211
  40.220         80.00        12.649
  40.240         38.00         8.718
  40.260         32.00         8.000
  40.280         42.00         9.165
  40.300         28.00         7.483
  40.320         36.00         8.485
  40.340         36.00         8.485
  40.360         48.00         9.798
  40.380         42.00         9.165
  40.400         50.00        10.000
  40.420         40.00         8.944
  40.440         40.00         8.944
  40.460         52.00        10.198
  40.480         40.00         8.944
  40.500         64.00        11.314
  40.520         48.00         9.798
  40.540         40.00         8.944
  40.560         40.00         8.944
  40.580         24.00         6.928
  40.600         46.00         9.592
  40.620         58.00        10.770
  40.640         44.00         9.381
  40.660         60.00        10.954
  40.680         38.00         8.718
  40.700         36.00         8.485
  40.720         56.00        10.583
  40.740         14.00         5.292
  40.760         26.00         7.211
  40.780         26.00         7.211
  40.800         50.00        10.000
  40.820         48.00         9.798
  40.840         20.00         6.325
  40.860         20.00         6.325
  40.880         30.00         7.746
  40.900         18.00         6.000
  40.920         36.00         8.485
  40.940          8.00         4.000
  40.960         30.00         7.746
  40.980         40.00         8.944
  41.000         22.00         6.633
  41.020         10.00         4.472
  41.040         18.00         6.000
  41.060         24.00         6.928
  41.080         26.00         7.211
  41.100         16.00         5.657
  41.120         20.00         6.325
  41.140         18.00         6.000
  41.160         38.00         8.718
  41.180         34.00         8.246
  41.200         40.00         8.944
  41.220         50.00        10.000
  41.240         28.00         7.483
  41.260         16.00         5.657
  41.280         32.00         8.000
  41.300         38.00         8.718
  41.320         40.00         8.944
  41.340         44.00         9.381
  41.360         46.00         9.592
  41.380         22.00         6.633
  41.400         36.00         8.485
  41.420         42.00         9.165
  41.440         36.00         8.485
  41.460         62.00        11.136
  41.480         44.00         9.381
  41.500         44.00         9.381
  41.520         62.00        11.136
  41.540         56.00        10.583
  41.560         44.00         9.381
  41.580         62.00        11.136
  41.600         68.00        11.662
  41.620         80.00        12.649
  41.640        124.00        15.748
  41.660        100.00        14.142
  41.680        114.00        15.100
  41.700        142.00        16.852
  41.720        128.00        16.000
  41.740        146.00        17.088
  41.760        142.00        16.852
  41.780         96.00        13.856
  41.800        130.00        16.125
  41.820        118.00        15.362
  41.840        154.00        17.550
  41.860        156.00        17.664
  41.880        152.00        17.436
  41.900        258.00        22.716
  41.920        174.00        18.655
  41.940        158.00        17.776
  41.960        138.00        16.613
  41.980        186.00        19.287
  42.000        134.00        16.371
  42.020        140.00        16.733
  42.040        166.00        18.221
  42.060        114.00        15.100
  42.080         70.00        11.832
  42.100         74.00        12.166
  42.120         64.00        11.314
  42.140         52.00        10.198
  42.160         86.00        13.115
  42.180        110.00        14.832
  42.200         36.00         8.485
  42.220         76.00        12.329
  42.240         46.00         9.592
  42.260         42.00         9.165
  42.280         68.00        11.662
  42.300         28.00         7.483
  42.320         38.00         8.718
  42.340         46.00         9.592
  42.360         42.00         9.165
  42.380         44.00         9.381
  42.400         42.00         9.165
  42.420         14.00         5.292
  42.440         44.00         9.381
  42.460         36.00         8.485
  42.480         30.00         7.746
  42.500         26.00         7.211
  42.520         34.00         8.246
  42.540         94.00        13.711
  42.560         46.00         9.592
  42.580         42.00         9.165
  42.600         36.00         8.485
  42.620         40.00         8.944
  42.640         46.00         9.592
  42.660         28.00         7.483
  42.680         24.00         6.928
  42.700         42.00         9.165
  42.720         36.00         8.485
  42.740         18.00         6.000
  42.760         48.00         9.798
  42.780         28.00         7.483
  42.800         32.00         8.000
  42.820         22.00         6.633
  42.840         38.00         8.718
  42.860         36.00         8.485
  42.880         36.00         8.485
  42.900         44.00         9.381
  42.920         30.00         7.746
  42.940         16.00         5.657
  42.960         32.00         8.000
  42.980         20.00         6.325
  43.000         54.00        10.392
  43.020         16.00         5.657
  43.040         50.00        10.000
  43.060         38.00         8.718
  43.080         22.00         6.633
  43.100         16.00         5.657
  43.120         38.00         8.718
  43.140         50.00        10.000
  43.160         34.00         8.246
  43.180         30.00         7.746
  43.200         40.00         8.944
  43.220         46.00         9.592
  43.240         42.00         9.165
  43.260         34.00         8.246
  43.280         62.00        11.136
  43.300         54.00        10.392
  43.320         70.00        11.832
  43.340         68.00        11.662
  43.360         92.00        13.565
  43.380         70.00        11.832
  43.400        114.00        15.100
  43.420        108.00        14.697
  43.440         62.00        11.136
  43.460         90.00        13.416
  43.480         98.00        14.000
  43.500        158.00        17.776
  43.520        158.00        17.776
  43.540        156.00        17.664
  43.560        236.00        21.726
  43.580        262.00        22.891
  43.600        382.00        27.641
  43.620        340.00        26.077
  43.640        446.00        29.866
  43.660        496.00        31.496
  43.680        580.00        34.059
  43.700        652.00        36.111
  43.720        764.00        39.090
  43.740        828.00        40.694
  43.760        718.00        37.895
  43.780        702.00        37.470
  43.800        658.00        36.277
  43.820        716.00        37.842
  43.840        532.00        32.619
  43.860        524.00        32.373
  43.880        342.00        26.153
  43.900        304.00        24.658
  43.920        272.00        23.324
  43.940        350.00        26.458
  43.960        160.00        17.889
  43.980        178.00        18.868
  44.000        102.00        14.283
  44.020         94.00        13.711
  44.040         82.00        12.806
  44.060         58.00        10.770
  44.080         58.00        10.770
  44.100         50.00        10.000
  44.120         64.00        11.314
  44.140         48.00         9.798
  44.160         50.00        10.000
  44.180         46.00         9.592
  44.200         46.00         9.592
  44.220         72.00        12.000
  44.240         50.00        10.000
  44.260         40.00         8.944
  44.280         56.00        10.583
  44.300         30.00         7.746
  44.320         48.00         9.798
  44.340         46.00         9.592
  44.360         36.00         8.485
  44.380         30.00         7.746
  44.400         30.00         7.746
  44.420         74.00        12.166
  44.440         50.00        10.000
  44.460         58.00        10.770
  44.480         26.00         7.211
  44.500         36.00         8.485
  44.520         44.00         9.381
  44.540         46.00         9.592
  44.560         46.00         9.592
  44.580         30.00         7.746
  44.600         32.00         8.000
  44.620         98.00        14.000
  44.640         26.00         7.211
  44.660         34.00         8.246
  44.680         50.00        10.000
  44.700         18.00         6.000
  44.720         48.00         9.798
  44.740         52.00        10.198
  44.760         40.00         8.944
  44.780         36.00         8.485
  44.800         72.00        12.000
  44.820         42.00         9.165
  44.840         48.00         9.798
  44.860         56.00        10.583
  44.880         28.00         7.483
  44.900         28.00         7.483
  44.920         68.00        11.662
  44.940         32.00         8.000
  44.960         62.00        11.136
  44.980         70.00        11.832
  45.000         98.00        14.000
  45.020         82.00        12.806
  45.040         74.00        12.166
  45.060         96.00        13.856
  45.080         96.00        13.856
  45.100        154.00        17.550
  45.120        150.00        17.321
  45.140        288.00        24.000
  45.160        384.00        27.713
  45.180        538.00        32.802
  45.200        686.00        37.041
  45.220        768.00        39.192
  45.240        944.00        43.451
  45.260        974.00        44.136
  45.280       1150.00        47.958
  45.300       1262.00        50.239
  45.320       1178.00        48.539
  45.340       1220.00        49.396
  45.360       1298.00        50.951
  45.380       1278.00        50.557
  45.400       1222.00        49.437
  45.420       1038.00        45.563
  45.440        772.00        39.294
  45.460        572.00        33.823
  45.480        542.00        32.924
  45.500        550.00        33.166
  45.520        368.00        27.129
  45.540        298.00        24.413
  45.560        230.00        21.448
  45.580        168.00        18.330
  45.600        164.00        18.111
  45.620        128.00        16.000
  45.640         78.00        12.490
  45.660         84.00        12.961
  45.680         66.00        11.489
  45.700         30.00         7.746
  45.720         40.00         8.944
  45.740         72.00        12.000
  45.760         52.00        10.198
  45.780         88.00        13.266
  45.800         48.00         9.798
  45.820         32.00         8.000
  45.840         42.00         9.165
  45.860         32.00         8.000
  45.880         64.00        11.314
  45.900         50.00        10.000
  45.920         52.00        10.198
  45.940         24.00         6.928
  45.960         30.00         7.746
  45.980         32.00         8.000
  46.000         48.00         9.798
  46.020         24.00         6.928
  46.040         46.00         9.592
  46.060         32.00         8.000
  46.080         46.00         9.592
  46.100         96.00        13.856
  46.120         54.00        10.392
  46.140         76.00        12.329
  46.160         68.00        11.662
  46.180         18.00         6.000
  46.200         86.00        13.115
  46.220         88.00        13.266
  46.240         48.00         9.798
  46.260         96.00        13.856
  46.280        112.00        14.967
  46.300        146.00        17.088
  46.320        138.00        16.613
  46.340        130.00        16.125
  46.360        128.00        16.000
  46.380        110.00        14.832
  46.400        122.00        15.620
  46.420         56.00        10.583
  46.440         80.00        12.649
  46.460         90.00        13.416
  46.480        128.00        16.000
  46.500         76.00        12.329
  46.520         52.00        10.198
  46.540         10.00         4.472
  46.560         56.00        10.583
  46.580         22.00         6.633
  46.600         30.00         7.746
  46.620         32.00         8.000
  46.640         22.00         6.633
  46.660         10.00         4.472
  46.680         32.00         8.000
  46.700         48.00         9.798
  46.720         30.00         7.746
  46.740         44.00         9.381
  46.760         32.00         8.000
  46.780         22.00         6.633
  46.800         18.00         6.000
  46.820          6.00         3.464
  46.840         16.00         5.657
  46.860         14.00         5.292
  46.880         14.00         5.292
  46.900         22.00         6.633
  46.920         32.00         8.000
  46.940         72.00        12.000
  46.960         22.00         6.633
  46.980         30.00         7.746
  47.000         40.00         8.944
  47.020         18.00         6.000
  47.040         28.00         7.483
  47.060         18.00         6.000
  47.080         24.00         6.928
  47.100         38.00         8.718
  47.120         40.00         8.944
  47.140         18.00         6.000
  47.160         34.00         8.246
  47.180         38.00         8.718
  47.200         16.00         5.657
  47.220         46.00         9.592
  47.240         34.00         8.246
  47.260         38.00         8.718
  47.280         28.00         7.483
  47.300         30.00         7.746
  47.320         34.00         8.246
  47.340         16.00         5.657
  47.360         26.00         7.211
  47.380         56.00        10.583
  47.400         32.00         8.000
  47.420         36.00         8.485
  47.440         32.00         8.000
  47.460         12.00         4.899
  47.480         22.00         6.633
  47.500          8.00         4.000
  47.520         32.00         8.000
  47.540         20.00         6.325
  47.560         26.00         7.211
  47.580         24.00         6.928
  47.600         32.00         8.000
  47.620         10.00         4.472
  47.640         32.00         8.000
  47.660         30.00         7.746
  47.680         22.00         6.633
  47.700         28.00         7.483
  47.720         28.00         7.483
  47.740         24.00         6.928
  47.760         18.00         6.000
  47.780         18.00         6.000
  47.800         42.00         9.165
  47.820         34.00         8.246
  47.840         28.00         7.483
  47.860         24.00         6.928
  47.880         36.00         8.485
  47.900         36.00         8.485
  47.920         42.00         9.165
  47.940         10.00         4.472
  47.960         30.00         7.746
  47.980         24.00         6.928
  48.000         28.00         7.483
  48.020         24.00         6.928
  48.040         18.00         6.000
  48.060         18.00         6.000
  48.080         26.00         7.211
  48.100         20.00         6.325
  48.120         32.00         8.000
  48.140         14.00         5.292
  48.160         26.00         7.211
  48.180         20.00         6.325
  48.200         26.00         7.211
  48.220         26.00         7.211
  48.240         32.00         8.000
  48.260         16.00         5.657
  48.280         38.00         8.718
  48.300         20.00         6.325
  48.320         24.00         6.928
  48.340         34.00         8.246
  48.360         26.00         7.211
  48.380         36.00         8.485
  48.400         24.00         6.928
  48.420         14.00         5.292
  48.440         38.00         8.718
  48.460         30.00         7.746
  48.480         42.00         9.165
  48.500         24.00         6.928
  48.520         26.00         7.211
  48.540         16.00         5.657
  48.560         22.00         6.633
  48.580         50.00        10.000
  48.600         28.00         7.483
  48.620         28.00         7.483
  48.640         22.00         6.633
  48.660          8.00         4.000
  48.680         12.00         4.899
  48.700          8.00         4.000
  48.720         58.00        10.770
  48.740         56.00        10.583
  48.760         32.00         8.000
  48.780         42.00         9.165
  48.800         34.00         8.246
  48.820         54.00        10.392
  48.840         58.00        10.770
  48.860         28.00         7.483
  48.880         68.00        11.662
  48.900         80.00        12.649
  48.920         86.00        13.115
  48.940         72.00        12.000
  48.960        106.00        14.560
  48.980        124.00        15.748
  49.000        122.00        15.620
  49.020         74.00        12.166
  49.040        126.00        15.875
  49.060         72.00        12.000
  49.080        112.00        14.967
  49.100        142.00        16.852
  49.120         90.00        13.416
  49.140         84.00        12.961
  49.160         80.00        12.649
  49.180        146.00        17.088
  49.200         60.00        10.954
  49.220         70.00        11.832
  49.240         56.00        10.583
  49.260         42.00         9.165
  49.280         60.00        10.954
  49.300         62.00        11.136
  49.320         62.00        11.136
  49.340         42.00         9.165
  49.360         62.00        11.136
  49.380         36.00         8.485
  49.400         48.00         9.798
  49.420         80.00        12.649
  49.440         62.00        11.136
  49.460         50.00        10.000
  49.480        106.00        14.560
  49.500         96.00        13.856
  49.520         94.00        13.711
  49.540        190.00        19.494
  49.560         98.00        14.000
  49.580        100.00        14.142
  49.600         70.00        11.832
  49.620        138.00        16.613
  49.640         64.00        11.314
  49.660         84.00        12.961
  49.680         48.00         9.798
  49.700         74.00        12.166
  49.720         66.00        11.489
  49.740         18.00         6.000
  49.760         62.00        11.136
  49.780         38.00         8.718
  49.800         26.00         7.211
  49.820         32.00         8.000
  49.840         26.00         7.211
  49.860         82.00        12.806
  49.880         26.00         7.211
  49.900         12.00         4.899
  49.920         34.00         8.246
  49.940         28.00         7.483
  49.960         30.00         7.746
  49.980         16.00         5.657
  50.000         30.00         7.746
  50.020         16.00         5.657
  50.040         28.00         7.483
  50.060         22.00         6.633
  50.080         28.00         7.483
  50.100         22.00         6.633
  50.120         20.00         6.325
  50.140         20.00         6.325
  50.160         22.00         6.633
  50.180         20.00         6.325
  50.200         12.00         4.899
  50.220         22.00         6.633
  50.240         32.00         8.000
  50.260         30.00         7.746
  50.280         36.00         8.485
  50.300         12.00         4.899
  50.320         30.00         7.746
  50.340         40.00         8.944
  50.360         50.00        10.000
  50.380         36.00         8.485
  50.400         22.00         6.633
  50.420         18.00         6.000
  50.440         34.00         8.246
  50.460         40.00         8.944
  50.480         32.00         8.000
  50.500         16.00         5.657
  50.520         32.00         8.000
  50.540         30.00         7.746
  50.560         22.00         6.633
  50.580         36.00         8.485
  50.600         42.00         9.165
  50.620         16.00         5.657
  50.640         38.00         8.718
  50.660         16.00         5.657
  50.680         18.00         6.000
  50.700         52.00        10.198
  50.720         22.00         6.633
  50.740         44.00         9.381
  50.760         26.00         7.211
  50.780         36.00         8.485
  50.800         20.00         6.325
  50.820         38.00         8.718
  50.840         20.00         6.325
  50.860         30.00         7.746
  50.880         24.00         6.928
  50.900         34.00         8.246
  50.920         24.00         6.928
  50.940         22.00         6.633
  50.960         18.00         6.000
  50.980         22.00         6.633
  51.000         20.00         6.325
  51.020         20.00         6.325
  51.040         20.00         6.325
  51.060         12.00         4.899
  51.080         24.00         6.928
  51.100         12.00         4.899
  51.120         30.00         7.746
  51.140         24.00         6.928
  51.160         18.00         6.000
  51.180         14.00         5.292
  51.200         38.00         8.718
  51.220         12.00         4.899
  51.240         14.00         5.292
  51.260         38.00         8.718
  51.280         32.00         8.000
  51.300         14.00         5.292
  51.320         20.00         6.325
  51.340         12.00         4.899
  51.360         16.00         5.657
  51.380         12.00         4.899
  51.400         14.00         5.292
  51.420         32.00         8.000
  51.440         30.00         7.746
  51.460         12.00         4.899
  51.480         34.00         8.246
  51.500         14.00         5.292
  51.520         22.00         6.633
  51.540         48.00         9.798
  51.560         20.00         6.325
  51.580          0.00         0.000
  51.600         36.00         8.485
  51.620         12.00         4.899
  51.640         28.00         7.483
  51.660         26.00         7.211
  51.680         20.00         6.325
  51.700         42.00         9.165
  51.720         22.00         6.633
  51.740         20.00         6.325
  51.760         10.00         4.472
  51.780         26.00         7.211
  51.800         32.00         8.000
  51.820         26.00         7.211
  51.840         14.00         5.292
  51.860          8.00         4.000
  51.880         24.00         6.928
  51.900         26.00         7.211
  51.920         16.00         5.657
  51.940         34.00         8.246
  51.960         28.00         7.483
  51.980         30.00         7.746
  52.000         16.00         5.657
  52.020         14.00         5.292
  52.040         16.00         5.657
  52.060         16.00         5.657
  52.080         14.00         5.292
  52.100         24.00         6.928
  52.120         16.00         5.657
  52.140         62.00        11.136
  52.160         26.00         7.211
  52.180          4.00         2.828
  52.200         28.00         7.483
  52.220         22.00         6.633
  52.240         16.00         5.657
  52.260         22.00         6.633
  52.280         22.00         6.633
  52.300         44.00         9.381
  52.320         22.00         6.633
  52.340         36.00         8.485
  52.360         20.00         6.325
  52.380          0.00         0.000
  52.400         28.00         7.483
  52.420         10.00         4.472
  52.440         26.00         7.211
  52.460         28.00         7.483
  52.480         26.00         7.211
  52.500          6.00         3.464
  52.520         18.00         6.000
  52.540         66.00        11.489
  52.560         24.00         6.928
  52.580         38.00         8.718
  52.600         22.00         6.633
  52.620         20.00         6.325
  52.640         30.00         7.746
  52.660          8.00         4.000
  52.680         26.00         7.211
  52.700         22.00         6.633
  52.720         34.00         8.246
  52.740         70.00        11.832
  52.760         24.00         6.928
  52.780         26.00         7.211
  52.800         20.00         6.325
  52.820         14.00         5.292
  52.840         20.00         6.325
  52.860         16.00         5.657
  52.880         32.00         8.000
  52.900         14.00         5.292
  52.920          8.00         4.000
  52.940         18.00         6.000
  52.960         10.00         4.472
  52.980         12.00         4.899
  53.000         18.00         6.000
  53.020         24.00         6.928
  53.040         26.00         7.211
  53.060         24.00         6.928
  53.080         24.00         6.928
  53.100         14.00         5.292
  53.120          8.00         4.000
  53.140         24.00         6.928
  53.160         28.00         7.483
  53.180          2.00         2.000
  53.200         12.00         4.899
  53.220         14.00         5.292
  53.240         50.00        10.000
  53.260         28.00         7.483
  53.280         22.00         6.633
  53.300         18.00         6.000
  53.320         24.00         6.928
  53.340         24.00         6.928
  53.360         12.00         4.899
  53.380          4.00         2.828
  53.400         18.00         6.000
  53.420         20.00         6.325
  53.440         12.00         4.899
  53.460         10.00         4.472
  53.480          8.00         4.000
  53.500          6.00         3.464
  53.520         38.00         8.718
  53.540         28.00         7.483
  53.560         12.00         4.899
  53.580         30.00         7.746
  53.600         14.00         5.292
  53.620         24.00         6.928
  53.640          8.00         4.000
  53.660         20.00         6.325
  53.680         16.00         5.657
  53.700          6.00         3.464
  53.720         26.00         7.211
  53.740         10.00         4.472
  53.760         14.00         5.292
  53.780         24.00         6.928
  53.800         24.00         6.928
  53.820          2.00         2.000
  53.840         20.00         6.325
  53.860          8.00         4.000
  53.880         32.00         8.000
  53.900         22.00         6.633
  53.920         24.00         6.928
  53.940         66.00        11.489
  53.960         14.00         5.292
  53.980         34.00         8.246
  54.000         16.00         5.657
  54.020         48.00         9.798
  54.040         26.00         7.211
  54.060         12.00         4.899
  54.080         32.00         8.000
  54.100         26.00         7.211
  54.120         30.00         7.746
  54.140         32.00         8.000
  54.160         46.00         9.592
  54.180          8.00         4.000
  54.200         12.00         4.899
  54.220         28.00         7.483
  54.240         28.00         7.483
  54.260         20.00         6.325
  54.280         34.00         8.246
  54.300         30.00         7.746
  54.320         26.00         7.211
  54.340         18.00         6.000
  54.360         44.00         9.381
  54.380         30.00         7.746
  54.400         26.00         7.211
  54.420         30.00         7.746
  54.440         34.00         8.246
  54.460         14.00         5.292
  54.480         32.00         8.000
  54.500         14.00         5.292
  54.520         28.00         7.483
  54.540         18.00         6.000
  54.560         16.00         5.657
  54.580         30.00         7.746
  54.600         22.00         6.633
  54.620         24.00         6.928
  54.640         34.00         8.246
  54.660         26.00         7.211
  54.680         18.00         6.000
  54.700         60.00        10.954
  54.720         44.00         9.381
  54.740         10.00         4.472
  54.760         20.00         6.325
  54.780         60.00        10.954
  54.800         14.00         5.292
  54.820         16.00         5.657
  54.840         22.00         6.633
  54.860         24.00         6.928
  54.880         20.00         6.325
  54.900         38.00         8.718
  54.920         12.00         4.899
  54.940         20.00         6.325
  54.960         18.00         6.000
  54.980         10.00         4.472
  55.000         20.00         6.325
  55.020         38.00         8.718
  55.040         22.00         6.633
  55.060         16.00         5.657
  55.080         40.00         8.944
  55.100         26.00         7.211
  55.120         24.00         6.928
  55.140         12.00         4.899
  55.160         22.00         6.633
  55.180          4.00         2.828
  55.200         26.00         7.211
  55.220         32.00         8.000
  55.240         30.00         7.746
  55.260         52.00        10.198
  55.280         38.00         8.718
  55.300         12.00         4.899
  55.320         26.00         7.211
  55.340         24.00         6.928
  55.360         24.00         6.928
  55.380          6.00         3.464
  55.400         34.00         8.246
  55.420         42.00         9.165
  55.440         10.00         4.472
  55.460         18.00         6.000
  55.480         40.00         8.944
  55.500          4.00         2.828
  55.520         20.00         6.325
  55.540         36.00         8.485
  55.560         20.00         6.325
  55.580          8.00         4.000
  55.600         32.00         8.000
  55.620         34.00         8.246
  55.640         16.00         5.657
  55.660          8.00         4.000
  55.680         16.00         5.657
  55.700         26.00         7.211
  55.720         34.00         8.246
  55.740         12.00         4.899
  55.760         24.00         6.928
  55.780         20.00         6.325
  55.800         22.00         6.633
  55.820         56.00        10.583
  55.840         18.00         6.000
  55.860          0.00         0.000
  55.880          8.00         4.000
  55.900         36.00         8.485
  55.920         20.00         6.325
  55.940         40.00         8.944
  55.960         16.00         5.657
  55.980         14.00         5.292
  56.000         30.00         7.746
  56.020          4.00         2.828
  56.040          4.00         2.828
  56.060         42.00         9.165
  56.080          8.00         4.000
  56.100          6.00         3.464
  56.120          8.00         4.000
  56.140         32.00         8.000
  56.160         32.00         8.000
  56.180         26.00         7.211
  56.200         18.00         6.000
  56.220         34.00         8.246
  56.240         16.00         5.657
  56.260         12.00         4.899
  56.280         10.00         4.472
  56.300         30.00         7.746
  56.320         16.00         5.657
  56.340         20.00         6.325
  56.360         16.00         5.657
  56.380          8.00         4.000
  56.400         20.00         6.325
  56.420         18.00         6.000
  56.440         22.00         6.633
  56.460         22.00         6.633
  56.480         20.00         6.325
  56.500         12.00         4.899
  56.520         10.00         4.472
  56.540         18.00         6.000
  56.560         36.00         8.485
  56.580         22.00         6.633
  56.600         20.00         6.325
  56.620         16.00         5.657
  56.640         20.00         6.325
  56.660         16.00         5.657
  56.680         20.00         6.325
  56.700         26.00         7.211
  56.720         28.00         7.483
  56.740         38.00         8.718
  56.760         18.00         6.000
  56.780         24.00         6.928
  56.800         26.00         7.211
  56.820         20.00         6.325
  56.840         24.00         6.928
  56.860         38.00         8.718
  56.880         16.00         5.657
  56.900         14.00         5.292
  56.920         28.00         7.483
  56.940         52.00        10.198
  56.960         22.00         6.633
  56.980         28.00         7.483
  57.000         46.00         9.592
  57.020         18.00         6.000
  57.040         26.00         7.211
  57.060         26.00         7.211
  57.080         36.00         8.485
  57.100         14.00         5.292
  57.120         26.00         7.211
  57.140          0.00         0.000
  57.160         18.00         6.000
  57.180         12.00         4.899
  57.200         22.00         6.633
  57.220         24.00         6.928
  57.240         34.00         8.246
  57.260         22.00         6.633
  57.280         22.00         6.633
  57.300         26.00         7.211
  57.320         10.00         4.472
  57.340          4.00         2.828
  57.360         20.00         6.325
  57.380         26.00         7.211
  57.400         22.00         6.633
  57.420         26.00         7.211
  57.440         28.00         7.483
  57.460          0.00         0.000
  57.480         20.00         6.325
  57.500         16.00         5.657
  57.520         20.00         6.325
  57.540         22.00         6.633
  57.560         14.00         5.292
  57.580         24.00         6.928
  57.600         28.00         7.483
  57.620         22.00         6.633
  57.640         16.00         5.657
  57.660         26.00         7.211
  57.680         24.00         6.928
  57.700          8.00         4.000
  57.720         26.00         7.211
  57.740         32.00         8.000
  57.760         10.00         4.472
  57.780         12.00         4.899
  57.800         28.00         7.483
  57.820         32.00         8.000
  57.840         22.00         6.633
  57.860         20.00         6.325
  57.880         34.00         8.246
  57.900          8.00         4.000
  57.920         16.00         5.657
  57.940         10.00         4.472
  57.960         22.00         6.633
  57.980         28.00         7.483
  58.000         34.00         8.246
  58.020         22.00         6.633
  58.040         36.00         8.485
  58.060         32.00         8.000
  58.080         50.00        10.000
  58.100         54.00        10.392
  58.120         50.00        10.000
  58.140         26.00         7.211
  58.160         70.00        11.832
  58.180         68.00        11.662
  58.200         48.00         9.798
  58.220         84.00        12.961
  58.240         92.00        13.565
  58.260         68.00        11.662
  58.280         58.00        10.770
  58.300         78.00        12.490
  58.320        102.00        14.283
  58.340         94.00        13.711
  58.360         74.00        12.166
  58.380         62.00        11.136
  58.400         70.00        11.832
  58.420         80.00        12.649
  58.440         62.00        11.136
  58.460         60.00        10.954
  58.480         66.00        11.489
  58.500         42.00         9.165
  58.520         36.00         8.485
  58.540         46.00         9.592
  58.560         42.00         9.165
  58.580         14.00         5.292
  58.600         38.00         8.718
  58.620         14.00         5.292
  58.640         18.00         6.000
  58.660         18.00         6.000
  58.680         24.00         6.928
  58.700         38.00         8.718
  58.720         34.00         8.246
  58.740         18.00         6.000
  58.760         18.00         6.000
  58.780         26.00         7.211
  58.800         22.00         6.633
  58.820         20.00         6.325
  58.840         16.00         5.657
  58.860         32.00         8.000
  58.880         14.00         5.292
  58.900         34.00         8.246
  58.920         28.00         7.483
  58.940         10.00         4.472
  58.960         26.00         7.211
  58.980         10.00         4.472
  59.000         28.00         7.483
  59.020         22.00         6.633
  59.040         24.00         6.928
  59.060         46.00         9.592
  59.080         24.00         6.928
  59.100         26.00         7.211
  59.120         16.00         5.657
  59.140         16.00         5.657
  59.160         24.00         6.928
  59.180         32.00         8.000
  59.200          8.00         4.000
  59.220         10.00         4.472
  59.240         14.00         5.292
  59.260          8.00         4.000
  59.280         34.00         8.246
  59.300         20.00         6.325
  59.320         24.00         6.928
  59.340          4.00         2.828
  59.360          8.00         4.000
  59.380         10.00         4.472
  59.400         24.00         6.928
  59.420         14.00         5.292
  59.440         16.00         5.657
  59.460         26.00         7.211
  59.480         22.00         6.633
  59.500         16.00         5.657
  59.520         20.00         6.325
  59.540         26.00         7.211
  59.560         18.00         6.000
  59.580         36.00         8.485
  59.600         24.00         6.928
  59.620          6.00         3.464
  59.640         26.00         7.211
  59.660         20.00         6.325
  59.680         22.00         6.633
  59.700         38.00         8.718
  59.720          8.00         4.000
  59.740          6.00         3.464
  59.760         26.00         7.211
  59.780         22.00         6.633
  59.800         20.00         6.325
  59.820         18.00         6.000
  59.840         26.00         7.211
  59.860          0.00         0.000
  59.880         12.00         4.899
  59.900          4.00         2.828
  59.920         16.00         5.657
  59.940          4.00         2.828
  59.960         20.00         6.325
  59.980         24.00         6.928
  60.000         12.00         4.899
  60.020         28.00         7.483
  60.040         24.00         6.928
  60.060         40.00         8.944
  60.080         14.00         5.292
  60.100         32.00         8.000
  60.120         16.00         5.657
  60.140          8.00         4.000
  60.160         24.00         6.928
  60.180         32.00         8.000
  60.200         26.00         7.211
  60.220         12.00         4.899
  60.240         14.00         5.292
  60.260          8.00         4.000
  60.280         20.00         6.325
  60.300         32.00         8.000
  60.320         24.00         6.928
  60.340         22.00         6.633
  60.360         12.00         4.899
  60.380         24.00         6.928
  60.400         14.00         5.292
  60.420         12.00         4.899
  60.440         14.00         5.292
  60.460         52.00        10.198
  60.480         12.00         4.899
  60.500         16.00         5.657
  60.520         26.00         7.211
  60.540         14.00         5.292
  60.560          8.00         4.000
  60.580         26.00         7.211
  60.600         12.00         4.899
  60.620          6.00         3.464
  60.640          6.00         3.464
  60.660          2.00         2.000
  60.680         26.00         7.211
  60.700         16.00         5.657
  60.720         28.00         7.483
  60.740         20.00         6.325
  60.760         12.00         4.899
  60.780          4.00         2.828
  60.800         32.00         8.000
  60.820         12.00         4.899
  60.840         16.00         5.657
  60.860         20.00         6.325
  60.880         12.00         4.899
  60.900         14.00         5.292
  60.920         22.00         6.633
  60.940         22.00         6.633
  60.960         26.00         7.211
  60.980         28.00         7.483
  61.000         28.00         7.483
  61.020         10.00         4.472
  61.040         30.00         7.746
  61.060         12.00         4.899
  61.080         18.00         6.000
  61.100         38.00         8.718
  61.120         12.00         4.899
  61.140         30.00         7.746
  61.160         20.00         6.325
  61.180         20.00         6.325
  61.200         14.00         5.292
  61.220         26.00         7.211
  61.240         16.00         5.657
  61.260          8.00         4.000
  61.280         16.00         5.657
  61.300         38.00         8.718
  61.320         22.00         6.633
  61.340         16.00         5.657
  61.360         14.00         5.292
  61.380         26.00         7.211
  61.400         18.00         6.000
  61.420         10.00         4.472
  61.440         26.00         7.211
  61.460          6.00         3.464
  61.480         24.00         6.928
  61.500         28.00         7.483
  61.520         22.00         6.633
  61.540         16.00         5.657
  61.560         16.00         5.657
  61.580         36.00         8.485
  61.600         26.00         7.211
  61.620         32.00         8.000
  61.640         20.00         6.325
  61.660         14.00         5.292
  61.680         24.00         6.928
  61.700         22.00         6.633
  61.720         14.00         5.292
  61.740         46.00         9.592
  61.760         14.00         5.292
  61.780          8.00         4.000
  61.800         18.00         6.000
  61.820         38.00         8.718
  61.840         24.00         6.928
  61.860         20.00         6.325
  61.880         16.00         5.657
  61.900         16.00         5.657
  61.920         16.00         5.657
  61.940         10.00         4.472
  61.960         18.00         6.000
  61.980          6.00         3.464
  62.000         32.00         8.000
  62.020          8.00         4.000
  62.040         22.00         6.633
  62.060         14.00         5.292
  62.080         22.00         6.633
  62.100         16.00         5.657
  62.120         14.00         5.292
  62.140         34.00         8.246
  62.160         26.00         7.211
  62.180         12.00         4.899
  62.200         20.00         6.325
  62.220         36.00         8.485
  62.240         26.00         7.211
  62.260         28.00         7.483
  62.280         44.00         9.381
  62.300         28.00         7.483
  62.320         26.00         7.211
  62.340         24.00         6.928
  62.360         28.00         7.483
  62.380         18.00         6.000
  62.400         28.00         7.483
  62.420         86.00        13.115
  62.440         28.00         7.483
  62.460         24.00         6.928
  62.480         32.00         8.000
  62.500         32.00         8.000
  62.520         30.00         7.746
  62.540         30.00         7.746
  62.560         30.00         7.746
  62.580         34.00         8.246
  62.600         28.00         7.483
  62.620         16.00         5.657
  62.640         26.00         7.211
  62.660         32.00         8.000
  62.680         14.00         5.292
  62.700         38.00         8.718
  62.720         24.00         6.928
  62.740          6.00         3.464
  62.760         22.00         6.633
  62.780         46.00         9.592
  62.800          6.00         3.464
  62.820         18.00         6.000
  62.840         18.00         6.000
  62.860         20.00         6.325
  62.880         14.00         5.292
  62.900         20.00         6.325
  62.920         18.00         6.000
  62.940         18.00         6.000
  62.960         28.00         7.483
  62.980         16.00         5.657
  63.000         30.00         7.746
  63.020         14.00         5.292
  63.040         16.00         5.657
  63.060         10.00         4.472
  63.080          4.00         2.828
  63.100         20.00         6.325
  63.120         44.00         9.381
  63.140         12.00         4.899
  63.160         28.00         7.483
  63.180         18.00         6.000
  63.200         20.00         6.325
  63.220         20.00         6.325
  63.240         26.00         7.211
  63.260         28.00         7.483
  63.280         18.00         6.000
  63.300         24.00         6.928
  63.320         20.00         6.325
  63.340         18.00         6.000
  63.360         12.00         4.899
  63.380          6.00         3.464
  63.400         18.00         6.000
  63.420         60.00        10.954
  63.440         16.00         5.657
  63.460          8.00         4.000
  63.480         14.00         5.292
  63.500         12.00         4.899
  63.520         42.00         9.165
  63.540         20.00         6.325
  63.560         18.00         6.000
  63.580         10.00         4.472
  63.600         10.00         4.472
  63.620         12.00         4.899
  63.640         22.00         6.633
  63.660         12.00         4.899
  63.680         30.00         7.746
  63.700          8.00         4.000
  63.720         22.00         6.633
  63.740         14.00         5.292
  63.760         22.00         6.633
  63.780          0.00         0.000
  63.800         36.00         8.485
  63.820         28.00         7.483
  63.840         18.00         6.000
  63.860         18.00         6.000
  63.880         32.00         8.000
  63.900          4.00         2.828
  63.920         30.00         7.746
  63.940         10.00         4.472
  63.960         14.00         5.292
  63.980         18.00         6.000
  64.000         20.00         6.325
  64.020         36.00         8.485
  64.040         22.00         6.633
  64.060         48.00         9.798
  64.080         34.00         8.246
  64.100          8.00         4.000
  64.120         30.00         7.746
  64.140         28.00         7.483
  64.160         36.00         8.485
  64.180         32.00         8.000
  64.200         48.00         9.798
  64.220         80.00        12.649
  64.240         34.00         8.246
  64.260         70.00        11.832
  64.280         44.00         9.381
  64.300         44.00         9.381
  64.320         52.00        10.198
  64.340         32.00         8.000
  64.360         26.00         7.211
  64.380         40.00         8.944
  64.400         52.00        10.198
  64.420         42.00         9.165
  64.440         52.00        10.198
  64.460         40.00         8.944
  64.480         80.00        12.649
  64.500        106.00        14.560
  64.520         70.00        11.832
  64.540         74.00        12.166
  64.560        116.00        15.232
  64.580        114.00        15.100
  64.600         98.00        14.000
  64.620        152.00        17.436
  64.640        128.00        16.000
  64.660        166.00        18.221
  64.680        168.00        18.330
  64.700        108.00        14.697
  64.720        156.00        17.664
  64.740        136.00        16.492
  64.760        128.00        16.000
  64.780        126.00        15.875
  64.800        130.00        16.125
  64.820        168.00        18.330
  64.840        132.00        16.248
  64.860        104.00        14.422
  64.880        136.00        16.492
  64.900         50.00        10.000
  64.920        108.00        14.697
  64.940         66.00        11.489
  64.960         54.00        10.392
  64.980         60.00        10.954
  65.000         66.00        11.489
  65.020         18.00         6.000
  65.040         76.00        12.329
  65.060         52.00        10.198
  65.080         46.00         9.592
  65.100         46.00         9.592
  65.120         34.00         8.246
  65.140         46.00         9.592
  65.160         38.00         8.718
  65.180         30.00         7.746
  65.200         30.00         7.746
  65.220         34.00         8.246
  65.240         30.00         7.746
  65.260         22.00         6.633
  65.280         26.00         7.211
  65.300         12.00         4.899
  65.320         18.00         6.000
  65.340         42.00         9.165
  65.360         20.00         6.325
  65.380         12.00         4.899
  65.400         28.00         7.483
  65.420         26.00         7.211
  65.440         16.00         5.657
  65.460          6.00         3.464
  65.480         30.00         7.746
  65.500         44.00         9.381
  65.520         34.00         8.246
  65.540         16.00         5.657
  65.560         18.00         6.000
  65.580         56.00        10.583
  65.600         16.00         5.657
  65.620         38.00         8.718
  65.640         12.00         4.899
  65.660          6.00         3.464
  65.680         24.00         6.928
  65.700         14.00         5.292
  65.720         28.00         7.483
  65.740         16.00         5.657
  65.760         20.00         6.325
  65.780         28.00         7.483
  65.800         40.00         8.944
  65.820         72.00        12.000
  65.840         36.00         8.485
  65.860         16.00         5.657
  65.880         26.00         7.211
  65.900         14.00         5.292
  65.920         26.00         7.211
  65.940         32.00         8.000
  65.960         40.00         8.944
  65.980         34.00         8.246
  66.000         20.00         6.325
  66.020         26.00         7.211
  66.040         24.00         6.928
  66.060         24.00         6.928
  66.080         26.00         7.211
  66.100         28.00         7.483
  66.120         24.00         6.928
  66.140         38.00         8.718
  66.160         20.00         6.325
  66.180         26.00         7.211
  66.200         20.00         6.325
  66.220         24.00         6.928
  66.240         38.00         8.718
  66.260         28.00         7.483
  66.280         16.00         5.657
  66.300         16.00         5.657
  66.320         18.00         6.000
  66.340          8.00         4.000
  66.360         36.00         8.485
  66.380         50.00        10.000
  66.400         22.00         6.633
  66.420         24.00         6.928
  66.440         10.00         4.472
  66.460          8.00         4.000
  66.480         16.00         5.657
  66.500         38.00         8.718
  66.520         18.00         6.000
  66.540         36.00         8.485
  66.560         30.00         7.746
  66.580         28.00         7.483
  66.600         40.00         8.944
  66.620         26.00         7.211
  66.640         16.00         5.657
  66.660         22.00         6.633
  66.680         24.00         6.928
  66.700         18.00         6.000
  66.720         26.00         7.211
  66.740         40.00         8.944
  66.760         26.00         7.211
  66.780         32.00         8.000
  66.800         22.00         6.633
  66.820         16.00         5.657
  66.840         42.00         9.165
  66.860         12.00         4.899
  66.880         48.00         9.798
  66.900         36.00         8.485
  66.920         34.00         8.246
  66.940         16.00         5.657
  66.960         36.00         8.485
  66.980         16.00         5.657
  67.000         26.00         7.211
  67.020         58.00        10.770
  67.040         36.00         8.485
  67.060         16.00         5.657
  67.080         16.00         5.657
  67.100         38.00         8.718
  67.120          8.00         4.000
  67.140         12.00         4.899
  67.160         12.00         4.899
  67.180         10.00         4.472
  67.200         10.00         4.472
  67.220         30.00         7.746
  67.240         18.00         6.000
  67.260          4.00         2.828
  67.280         20.00         6.325
  67.300          4.00         2.828
  67.320         10.00         4.472
  67.340         26.00         7.211
  67.360         24.00         6.928
  67.380         14.00         5.292
  67.400         18.00         6.000
  67.420         62.00        11.136
  67.440         14.00         5.292
  67.460          4.00         2.828
  67.480         16.00         5.657
  67.500         34.00         8.246
  67.520         18.00         6.000
  67.540          2.00         2.000
  67.560         28.00         7.483
  67.580         30.00         7.746
  67.600         20.00         6.325
  67.620         28.00         7.483
  67.640          6.00         3.464
  67.660         14.00         5.292
  67.680         20.00         6.325
  67.700         22.00         6.633
  67.720         30.00         7.746
  67.740         16.00         5.657
  67.760         12.00         4.899
  67.780         10.00         4.472
  67.800         24.00         6.928
  67.820         22.00         6.633
  67.840         22.00         6.633
  67.860         32.00         8.000
  67.880         20.00         6.325
  67.900         14.00         5.292
  67.920         16.00         5.657
  67.940          6.00         3.464
  67.960         26.00         7.211
  67.980         12.00         4.899
  68.000         18.00         6.000
  68.020         16.00         5.657
  68.040         36.00         8.485
  68.060         16.00         5.657
  68.080         36.00         8.485
  68.100         26.00         7.211
  68.120         24.00         6.928
  68.140         26.00         7.211
  68.160         36.00         8.485
  68.180         22.00         6.633
  68.200         14.00         5.292
  68.220         18.00         6.000
  68.240         12.00         4.899
  68.260          2.00         2.000
  68.280         16.00         5.657
  68.300         20.00         6.325
  68.320         14.00         5.292
  68.340         14.00         5.292
  68.360         24.00         6.928
  68.380         14.00         5.292
  68.400         14.00         5.292
  68.420         18.00         6.000
  68.440         12.00         4.899
  68.460          4.00         2.828
  68.480         28.00         7.483
  68.500         12.00         4.899
  68.520         40.00         8.944
  68.540         24.00         6.928
  68.560         20.00         6.325
  68.580         38.00         8.718
  68.600         22.00         6.633
  68.620         32.00         8.000
  68.640         20.00         6.325
  68.660          6.00         3.464
  68.680         18.00         6.000
  68.700         64.00        11.314
  68.720         14.00         5.292
  68.740         18.00         6.000
  68.760         12.00         4.899
  68.780         20.00         6.325
  68.800         20.00         6.325
  68.820         20.00         6.325
  68.840         24.00         6.928
  68.860          8.00         4.000
  68.880         20.00         6.325
  68.900         16.00         5.657
  68.920         16.00         5.657
  68.940         32.00         8.000
  68.960         24.00         6.928
  68.980         10.00         4.472
  69.000         12.00         4.899
  69.020         24.00         6.928
  69.040         18.00         6.000
  69.060         16.00         5.657
  69.080         16.00         5.657
  69.100         24.00         6.928
  69.120         16.00         5.657
  69.140         44.00         9.381
  69.160         20.00         6.325
  69.180         10.00         4.472
  69.200         26.00         7.211
  69.220         40.00         8.944
  69.240         30.00         7.746
  69.260         18.00         6.000
  69.280         20.00         6.325
  69.300         12.00         4.899
  69.320         28.00         7.483
  69.340          6.00         3.464
  69.360         48.00         9.798
  69.380         20.00         6.325
  69.400         12.00         4.899
  69.420         60.00        10.954
  69.440         24.00         6.928
  69.460         70.00        11.832
  69.480         18.00         6.000
  69.500         24.00         6.928
  69.520         26.00         7.211
  69.540         26.00         7.211
  69.560         20.00         6.325
  69.580         28.00         7.483
  69.600         16.00         5.657
  69.620         16.00         5.657
  69.640         30.00         7.746
  69.660          4.00         2.828
  69.680         14.00         5.292
  69.700         12.00         4.899
  69.720          8.00         4.000
  69.740         24.00         6.928
  69.760         16.00         5.657
  69.780         24.00         6.928
  69.800          8.00         4.000
  69.820         24.00         6.928
  69.840         28.00         7.483
  69.860         20.00         6.325
  69.880         20.00         6.325
  69.900         10.00         4.472
  69.920         16.00         5.657
  69.940         14.00         5.292
  69.960         14.00         5.292
  69.980         14.00         5.292
  70.000         20.00         6.325
  70.020         26.00         7.211
  70.040         26.00         7.211
  70.060         12.00         4.899
  70.080         24.00         6.928
  70.100          6.00         3.464
  70.120         12.00         4.899
  70.140         20.00         6.325
  70.160         18.00         6.000
  70.180         24.00         6.928
  70.200         22.00         6.633
  70.220         30.00         7.746
  70.240         16.00         5.657
  70.260         26.00         7.211
  70.280         12.00         4.899
  70.300         22.00         6.633
  70.320         10.00         4.472
  70.340         12.00         4.899
  70.360         20.00         6.325
  70.380         18.00         6.000
  70.400         24.00         6.928
  70.420         24.00         6.928
  70.440         22.00         6.633
  70.460         16.00         5.657
  70.480         24.00         6.928
  70.500         20.00         6.325
  70.520         28.00         7.483
  70.540         20.00         6.325
  70.560         12.00         4.899
  70.580         10.00         4.472
  70.600         20.00         6.325
  70.620         38.00         8.718
  70.640         16.00         5.657
  70.660         24.00         6.928
  70.680         22.00         6.633
  70.700         24.00         6.928
  70.720         30.00         7.746
  70.740         16.00         5.657
  70.760         20.00         6.325
  70.780         20.00         6.325
  70.800         24.00         6.928
  70.820         20.00         6.325
  70.840         18.00         6.000
  70.860         10.00         4.472
  70.880         10.00         4.472
  70.900         12.00         4.899
  70.920         14.00         5.292
  70.940          4.00         2.828
  70.960         14.00         5.292
  70.980         20.00         6.325
  71.000         22.00         6.633
  71.020         16.00         5.657
  71.040         32.00         8.000
  71.060          8.00         4.000
  71.080         22.00         6.633
  71.100         12.00         4.899
  71.120         16.00         5.657
  71.140         10.00         4.472
  71.160         24.00         6.928
  71.180         12.00         4.899
  71.200         24.00         6.928
  71.220         22.00         6.633
  71.240         18.00         6.000
  71.260         36.00         8.485
  71.280         32.00         8.000
  71.300         24.00         6.928
  71.320         44.00         9.381
  71.340         12.00         4.899
  71.360         24.00         6.928
  71.380         18.00         6.000
  71.400         14.00         5.292
  71.420          8.00         4.000
  71.440         22.00         6.633
  71.460         16.00         5.657
  71.480         24.00         6.928
  71.500         22.00         6.633
  71.520         22.00         6.633
  71.540         14.00         5.292
  71.560         26.00         7.211
  71.580         16.00         5.657
  71.600         16.00         5.657
  71.620         14.00         5.292
  71.640         30.00         7.746
  71.660          8.00         4.000
  71.680         20.00         6.325
  71.700          8.00         4.000
  71.720         36.00         8.485
  71.740          8.00         4.000
  71.760         24.00         6.928
  71.780         22.00         6.633
  71.800         24.00         6.928
  71.820         18.00         6.000
  71.840         20.00         6.325
  71.860         64.00        11.314
  71.880         20.00         6.325
  71.900         12.00         4.899
  71.920         10.00         4.472
  71.940         22.00         6.633
  71.960         16.00         5.657
  71.980         40.00         8.944
  72.000         12.00         4.899
  72.020         16.00         5.657
  72.040         28.00         7.483
  72.060          8.00         4.000
  72.080         28.00         7.483
  72.100         10.00         4.472
  72.120         22.00         6.633
  72.140         36.00         8.485
  72.160         22.00         6.633
  72.180         38.00         8.718
  72.200         46.00         9.592
  72.220         14.00         5.292
  72.240         22.00         6.633
  72.260         24.00         6.928
  72.280         34.00         8.246
  72.300         42.00         9.165
  72.320         28.00         7.483
  72.340         60.00        10.954
  72.360         44.00         9.381
  72.380         28.00         7.483
  72.400         36.00         8.485
  72.420         38.00         8.718
  72.440         20.00         6.325
  72.460         16.00         5.657
  72.480         46.00         9.592
  72.500         66.00        11.489
  72.520         30.00         7.746
  72.540         22.00         6.633
  72.560         36.00         8.485
  72.580         14.00         5.292
  72.600         22.00         6.633
  72.620         26.00         7.211
  72.640         36.00         8.485
  72.660         20.00         6.325
  72.680         26.00         7.211
  72.700          2.00         2.000
  72.720         42.00         9.165
  72.740         30.00         7.746
  72.760         16.00         5.657
  72.780         22.00         6.633
  72.800         34.00         8.246
  72.820         10.00         4.472
  72.840         32.00         8.000
  72.860         32.00         8.000
  72.880         22.00         6.633
  72.900         36.00         8.485
  72.920         20.00         6.325
  72.940         22.00         6.633
  72.960         28.00         7.483
  72.980         22.00         6.633
  73.000         44.00         9.381
  73.020         34.00         8.246
  73.040         28.00         7.483
  73.060         26.00         7.211
  73.080         22.00         6.633
  73.100         38.00         8.718
  73.120         46.00         9.592
  73.140         48.00         9.798
  73.160         40.00         8.944
  73.180         12.00         4.899
  73.200         34.00         8.246
  73.220         66.00        11.489
  73.240         54.00        10.392
  73.260         30.00         7.746
  73.280         30.00         7.746
  73.300         42.00         9.165
  73.320         36.00         8.485
  73.340         70.00        11.832
  73.360         54.00        10.392
  73.380         40.00         8.944
  73.400         42.00         9.165
  73.420         52.00        10.198
  73.440         20.00         6.325
  73.460         48.00         9.798
  73.480         34.00         8.246
  73.500         40.00         8.944
  73.520         24.00         6.928
  73.540         46.00         9.592
  73.560         38.00         8.718
  73.580          6.00         3.464
  73.600         28.00         7.483
  73.620         22.00         6.633
  73.640         26.00         7.211
  73.660         28.00         7.483
  73.680         32.00         8.000
  73.700         14.00         5.292
  73.720         24.00         6.928
  73.740          6.00         3.464
  73.760         32.00         8.000
  73.780          0.00         0.000
  73.800         32.00         8.000
  73.820          6.00         3.464
  73.840          4.00         2.828
  73.860          2.00         2.000
  73.880         10.00         4.472
  73.900         46.00         9.592
  73.920         20.00         6.325
  73.940         10.00         4.472
  73.960         12.00         4.899
  73.980          4.00         2.828
  74.000         12.00         4.899
  74.020          6.00         3.464
  74.040         32.00         8.000
  74.060         28.00         7.483
  74.080         14.00         5.292
  74.100         14.00         5.292
  74.120         28.00         7.483
  74.140         26.00         7.211
  74.160         24.00         6.928
  74.180         34.00         8.246
  74.200         24.00         6.928
  74.220          8.00         4.000
  74.240         16.00         5.657
  74.260          6.00         3.464
  74.280         26.00         7.211
  74.300          2.00         2.000
  74.320         18.00         6.000
  74.340          6.00         3.464
  74.360         28.00         7.483
  74.380         10.00         4.472
  74.400         22.00         6.633
  74.420         10.00         4.472
  74.440         24.00         6.928
  74.460         18.00         6.000
  74.480         20.00         6.325
  74.500         26.00         7.211
  74.520         40.00         8.944
  74.540         16.00         5.657
  74.560         18.00         6.000
  74.580         30.00         7.746
  74.600         12.00         4.899
  74.620         14.00         5.292
  74.640         22.00         6.633
  74.660          2.00         2.000
  74.680         24.00         6.928
  74.700         14.00         5.292
  74.720         16.00         5.657
  74.740          0.00         0.000
  74.760         24.00         6.928
  74.780         32.00         8.000
  74.800         28.00         7.483
  74.820          2.00         2.000
  74.840         12.00         4.899
  74.860         10.00         4.472
  74.880         18.00         6.000
  74.900         20.00         6.325
  74.920         16.00         5.657
  74.940         66.00        11.489
  74.960         14.00         5.292
  74.980         36.00         8.485
  75.000         10.00         4.472
  75.020         28.00         7.483
  75.040         30.00         7.746
  75.060          8.00         4.000
  75.080         20.00         6.325
  75.100         30.00         7.746
  75.120         22.00         6.633
  75.140         20.00         6.325
  75.160         24.00         6.928
  75.180         14.00         5.292
  75.200         22.00         6.633
  75.220          8.00         4.000
  75.240         28.00         7.483
  75.260         10.00         4.472
  75.280         18.00         6.000
  75.300         20.00         6.325
  75.320         22.00         6.633
  75.340         10.00         4.472
  75.360         12.00         4.899
  75.380         26.00         7.211
  75.400         16.00         5.657
  75.420          4.00         2.828
  75.440         20.00         6.325
  75.460          4.00         2.828
  75.480         16.00         5.657
  75.500         34.00         8.246
  75.520         18.00         6.000
  75.540         32.00         8.000
  75.560         24.00         6.928
  75.580         22.00         6.633
  75.600         28.00         7.483
  75.620         50.00        10.000
  75.640         26.00         7.211
  75.660         16.00         5.657
  75.680         26.00         7.211
  75.700         44.00         9.381
  75.720         16.00         5.657
  75.740         50.00        10.000
  75.760         38.00         8.718
  75.780         16.00         5.657
  75.800         26.00         7.211
  75.820         14.00         5.292
  75.840         28.00         7.483
  75.860         38.00         8.718
  75.880         16.00         5.657
  75.900         16.00         5.657
  75.920         14.00         5.292
  75.940         40.00         8.944
  75.960         26.00         7.211
  75.980         36.00         8.485
  76.000         34.00         8.246
  76.020         24.00         6.928
  76.040         12.00         4.899
  76.060         18.00         6.000
  76.080         22.00         6.633
  76.100         34.00         8.246
  76.120         32.00         8.000
  76.140         52.00        10.198
  76.160         20.00         6.325
  76.180          4.00         2.828
  76.200         20.00         6.325
  76.220         10.00         4.472
  76.240         16.00         5.657
  76.260         30.00         7.746
  76.280         14.00         5.292
  76.300         38.00         8.718
  76.320         16.00         5.657
  76.340          2.00         2.000
  76.360         26.00         7.211
  76.380         28.00         7.483
  76.400         20.00         6.325
  76.420         22.00         6.633
  76.440         20.00         6.325
  76.460        104.00        14.422
  76.480         12.00         4.899
  76.500          6.00         3.464
  76.520         12.00         4.899
  76.540          8.00         4.000
  76.560         16.00         5.657
  76.580         30.00         7.746
  76.600         22.00         6.633
  76.620         32.00         8.000
  76.640         20.00         6.325
  76.660         22.00         6.633
  76.680         26.00         7.211
  76.700         14.00         5.292
  76.720         22.00         6.633
  76.740         32.00         8.000
  76.760         40.00         8.944
  76.780         74.00        12.166
  76.800         32.00         8.000
  76.820         24.00         6.928
  76.840         34.00         8.246
  76.860         28.00         7.483
  76.880         28.00         7.483
  76.900         16.00         5.657
  76.920         40.00         8.944
  76.940         18.00         6.000
  76.960         10.00         4.472
  76.980         26.00         7.211
  77.000         12.00         4.899
  77.020         20.00         6.325
  77.040         36.00         8.485
  77.060         28.00         7.483
  77.080         16.00         5.657
  77.100         22.00         6.633
  77.120         16.00         5.657
  77.140         12.00         4.899
  77.160         26.00         7.211
  77.180         20.00         6.325
  77.200         26.00         7.211
  77.220          2.00         2.000
  77.240         16.00         5.657
  77.260         14.00         5.292
  77.280         16.00         5.657
  77.300         24.00         6.928
  77.320         26.00         7.211
  77.340          8.00         4.000
  77.360         18.00         6.000
  77.380         22.00         6.633
  77.400         28.00         7.483
  77.420         12.00         4.899
  77.440         24.00         6.928
  77.460         10.00         4.472
  77.480         24.00         6.928
  77.500         16.00         5.657
  77.520         16.00         5.657
  77.540         20.00         6.325
  77.560         24.00         6.928
  77.580         30.00         7.746
  77.600         24.00         6.928
  77.620         22.00         6.633
  77.640         30.00         7.746
  77.660          2.00         2.000
  77.680         22.00         6.633
  77.700         20.00         6.325
  77.720         18.00         6.000
  77.740         14.00         5.292
  77.760         26.00         7.211
  77.780          6.00         3.464
  77.800         26.00         7.211
  77.820         26.00         7.211
  77.840         22.00         6.633
  77.860         12.00         4.899
  77.880          8.00         4.000
  77.900         14.00         5.292
  77.920         20.00         6.325
  77.940          6.00         3.464
  77.960         22.00         6.633
  77.980          8.00         4.000
  78.000         26.00         7.211
  78.020         16.00         5.657
  78.040         30.00         7.746
  78.060          6.00         3.464
  78.080         14.00         5.292
  78.100         14.00         5.292
  78.120         14.00         5.292
  78.140         14.00         5.292
  78.160         24.00         6.928
  78.180         26.00         7.211
  78.200         22.00         6.633
  78.220         30.00         7.746
  78.240         16.00         5.657
  78.260         28.00         7.483
  78.280         34.00         8.246
  78.300         12.00         4.899
  78.320         38.00         8.718
  78.340         10.00         4.472
  78.360         24.00         6.928
  78.380         42.00         9.165
  78.400         22.00         6.633
  78.420         18.00         6.000
  78.440         16.00         5.657
  78.460         48.00         9.798
  78.480         24.00         6.928
  78.500         56.00        10.583
  78.520         16.00         5.657
  78.540         22.00         6.633
  78.560         48.00         9.798
  78.580         38.00         8.718
  78.600         38.00         8.718
  78.620         38.00         8.718
  78.640         22.00         6.633
  78.660         22.00         6.633
  78.680         18.00         6.000
  78.700         12.00         4.899
  78.720         20.00         6.325
  78.740         22.00         6.633
  78.760         26.00         7.211
  78.780         10.00         4.472
  78.800         26.00         7.211
  78.820         38.00         8.718
  78.840         32.00         8.000
  78.860         20.00         6.325
  78.880         26.00         7.211
  78.900         64.00        11.314
  78.920         26.00         7.211
  78.940         50.00        10.000
  78.960         36.00         8.485
  78.980         12.00         4.899
  79.000         22.00         6.633
  79.020          6.00         3.464
  79.040         20.00         6.325
  79.060         30.00         7.746
  79.080         18.00         6.000
  79.100         44.00         9.381
  79.120         22.00         6.633
  79.140         16.00         5.657
  79.160         12.00         4.899
  79.180          8.00         4.000
  79.200         16.00         5.657
  79.220         22.00         6.633
  79.240         14.00         5.292
  79.260         14.00         5.292
  79.280         14.00         5.292
  79.300         10.00         4.472
  79.320         32.00         8.000
  79.340         44.00         9.381
  79.360         12.00         4.899
  79.380         34.00         8.246
  79.400         44.00         9.381
  79.420         26.00         7.211
  79.440         14.00         5.292
  79.460         26.00         7.211
  79.480         10.00         4.472
  79.500         18.00         6.000
  79.520         32.00         8.000
  79.540         32.00         8.000
  79.560         18.00         6.000
  79.580         30.00         7.746
  79.600         24.00         6.928
  79.620          8.00         4.000
  79.640         20.00         6.325
  79.660         34.00         8.246
  79.680         14.00         5.292
  79.700         30.00         7.746
  79.720         32.00         8.000
  79.740          6.00         3.464
  79.760         32.00         8.000
  79.780         14.00         5.292
  79.800         14.00         5.292
  79.820          0.00         0.000
  79.840         10.00         4.472
  79.860         50.00        10.000
  79.880         14.00         5.292
  79.900         42.00         9.165
  79.920         20.00         6.325
  79.940         20.00         6.325
  79.960         18.00         6.000
  79.980         30.00         7.746
  80.000         14.00         5.292
  80.020         14.00         5.292
  80.040         18.00         6.000
  80.060          0.00         0.000
  80.080         14.00         5.292
  80.100         16.00         5.657
  80.120         16.00         5.657
  80.140         16.00         5.657
  80.160         20.00         6.325
  80.180         52.00        10.198
  80.200         18.00         6.000
  80.220          6.00         3.464
  80.240         20.00         6.325
  80.260          6.00         3.464
  80.280         22.00         6.633
  80.300         32.00         8.000
  80.320         12.00         4.899
  80.340         16.00         5.657
  80.360         14.00         5.292
  80.380         14.00         5.292
  80.400         30.00         7.746
  80.420         14.00         5.292
  80.440         20.00         6.325
  80.460         56.00        10.583
  80.480          8.00         4.000
  80.500         22.00         6.633
  80.520         24.00         6.928
  80.540          0.00         0.000
  80.560         20.00         6.325
  80.580         12.00         4.899
  80.600         20.00         6.325
  80.620         10.00         4.472
  80.640         40.00         8.944
  80.660         10.00         4.472
  80.680         48.00         9.798
  80.700         14.00         5.292
  80.720         16.00         5.657
  80.740         14.00         5.292
  80.760         24.00         6.928
  80.780         58.00        10.770
  80.800         18.00         6.000
  80.820         12.00         4.899
  80.840         24.00         6.928
  80.860         16.00         5.657
  80.880         10.00         4.472
  80.900          0.00         0.000
  80.920         10.00         4.472
  80.940         18.00         6.000
  80.960         40.00         8.944
  80.980         10.00         4.472
  81.000         40.00         8.944
  81.020         36.00         8.485
  81.040         26.00         7.211
  81.060          2.00         2.000
  81.080         20.00         6.325
  81.100         22.00         6.633
  81.120         32.00         8.000
  81.140         28.00         7.483
  81.160         38.00         8.718
  81.180         38.00         8.718
  81.200         44.00         9.381
  81.220         12.00         4.899
  81.240         28.00         7.483
  81.260         78.00        12.490
  81.280         22.00         6.633
  81.300         26.00         7.211
  81.320         16.00         5.657
  81.340         34.00         8.246
  81.360         12.00         4.899
  81.380          2.00         2.000
  81.400         28.00         7.483
  81.420         14.00         5.292
  81.440         28.00         7.483
  81.460         12.00         4.899
  81.480         30.00         7.746
  81.500         46.00         9.592
  81.520         12.00         4.899
  81.540         52.00        10.198
  81.560         36.00         8.485
  81.580         12.00         4.899
  81.600         18.00         6.000
  81.620         26.00         7.211
  81.640         28.00         7.483
  81.660         32.00         8.000
  81.680         26.00         7.211
  81.700         42.00         9.165
  81.720         34.00         8.246
  81.740          8.00         4.000
  81.760         30.00         7.746
  81.780         26.00         7.211
  81.800         22.00         6.633
  81.820         10.00         4.472
  81.840         30.00         7.746
  81.860          4.00         2.828
  81.880         32.00         8.000
  81.900         38.00         8.718
  81.920         34.00         8.246
  81.940         26.00         7.211
  81.960         40.00         8.944
  81.980         60.00        10.954
  82.000         52.00        10.198
  82.020         40.00         8.944
  82.040         50.00        10.000
  82.060         52.00        10.198
  82.080         58.00        10.770
  82.100         52.00        10.198
  82.120         76.00        12.329
  82.140        104.00        14.422
  82.160         74.00        12.166
  82.180         60.00        10.954
  82.200        106.00        14.560
  82.220        120.00        15.492
  82.240         90.00        13.416
  82.260         54.00        10.392
  82.280        112.00        14.967
  82.300        108.00        14.697
  82.320         82.00        12.806
  82.340        134.00        16.371
  82.360        128.00        16.000
  82.380        134.00        16.371
  82.400        130.00        16.125
  82.420        106.00        14.560
  82.440        138.00        16.613
  82.460         90.00        13.416
  82.480        104.00        14.422
  82.500        126.00        15.875
  82.520        134.00        16.371
  82.540        108.00        14.697
  82.560        150.00        17.321
  82.580         56.00        10.583
  82.600         96.00        13.856
  82.620        110.00        14.832
  82.640        120.00        15.492
  82.660         90.00        13.416
  82.680         66.00        11.489
  82.700         98.00        14.000
  82.720         68.00        11.662
  82.740         60.00        10.954
  82.760         64.00        11.314
  82.780         54.00        10.392
  82.800         82.00        12.806
  82.820         64.00        11.314
  82.840         42.00         9.165
  82.860         18.00         6.000
  82.880         42.00         9.165
  82.900         84.00        12.961
  82.920         34.00         8.246
  82.940         34.00         8.246
  82.960         32.00         8.000
  82.980         56.00        10.583
  83.000         42.00         9.165
  83.020         52.00        10.198
  83.040         38.00         8.718
  83.060         32.00         8.000
  83.080         38.00         8.718
  83.100         16.00         5.657
  83.120         28.00         7.483
  83.140         56.00        10.583
  83.160         54.00        10.392
  83.180         24.00         6.928
  83.200         40.00         8.944
  83.220         24.00         6.928
  83.240         66.00        11.489
  83.260         90.00        13.416
  83.280         76.00        12.329
  83.300         36.00         8.485
  83.320         94.00        13.711
  83.340         56.00        10.583
  83.360         86.00        13.115
  83.380         88.00        13.266
  83.400        128.00        16.000
  83.420        114.00        15.100
  83.440        168.00        18.330
  83.460        122.00        15.620
  83.480        170.00        18.439
  83.500        154.00        17.550
  83.520        232.00        21.541
  83.540        222.00        21.071
  83.560        254.00        22.539
  83.580        226.00        21.260
  83.600        230.00        21.448
  83.620        292.00        24.166
  83.640        218.00        20.881
  83.660        376.00        27.423
  83.680        274.00        23.409
  83.700        230.00        21.448
  83.720        264.00        22.978
  83.740        216.00        20.785
  83.760        196.00        19.799
  83.780        130.00        16.125
  83.800        166.00        18.221
  83.820         78.00        12.490
  83.840        120.00        15.492
  83.860        114.00        15.100
  83.880        120.00        15.492
  83.900         52.00        10.198
  83.920         94.00        13.711
  83.940        162.00        18.000
  83.960        124.00        15.748
  83.980        128.00        16.000
  84.000         48.00         9.798
  84.020         36.00         8.485
  84.040         36.00         8.485
  84.060         24.00         6.928
  84.080         38.00         8.718
  84.100         36.00         8.485
  84.120         34.00         8.246
  84.140         28.00         7.483
  84.160         28.00         7.483
  84.180         46.00         9.592
  84.200         36.00         8.485
  84.220         26.00         7.211
  84.240         32.00         8.000
  84.260          8.00         4.000
  84.280         22.00         6.633
  84.300         32.00         8.000
  84.320         16.00         5.657
  84.340         10.00         4.472
  84.360         24.00         6.928
  84.380          2.00         2.000
  84.400         14.00         5.292
  84.420         24.00         6.928
  84.440         16.00         5.657
  84.460          2.00         2.000
  84.480         30.00         7.746
  84.500          8.00         4.000
  84.520         26.00         7.211
  84.540         38.00         8.718
  84.560         24.00         6.928
  84.580          4.00         2.828
  84.600         14.00         5.292
  84.620         70.00        11.832
  84.640         18.00         6.000
  84.660          6.00         3.464
  84.680         22.00         6.633
  84.700          8.00         4.000
  84.720         12.00         4.899
  84.740          0.00         0.000
  84.760         14.00         5.292
  84.780         18.00         6.000
  84.800         20.00         6.325
  84.820         22.00         6.633
  84.840          8.00         4.000
  84.860          4.00         2.828
  84.880         40.00         8.944
  84.900          8.00         4.000
  84.920         16.00         5.657
  84.940          8.00         4.000
  84.960         30.00         7.746
  84.980         32.00         8.000
  85.000         28.00         7.483
  85.020          2.00         2.000
  85.040         14.00         5.292
  85.060          8.00         4.000
  85.080         24.00         6.928
  85.100          6.00         3.464
  85.120         34.00         8.246
  85.140         52.00        10.198
  85.160         18.00         6.000
  85.180         24.00         6.928
  85.200         42.00         9.165
  85.220         18.00         6.000
  85.240         24.00         6.928
  85.260         74.00        12.166
  85.280         44.00         9.381
  85.300         20.00         6.325
  85.320         38.00         8.718
  85.340         32.00         8.000
  85.360         22.00         6.633
  85.380         32.00         8.000
  85.400         28.00         7.483
  85.420         36.00         8.485
  85.440         28.00         7.483
  85.460         56.00        10.583
  85.480         16.00         5.657
  85.500         10.00         4.472
  85.520         30.00         7.746
  85.540         10.00         4.472
  85.560         36.00         8.485
  85.580         22.00         6.633
  85.600         20.00         6.325
  85.620         64.00        11.314
  85.640         26.00         7.211
  85.660         14.00         5.292
  85.680         22.00         6.633
  85.700          6.00         3.464
  85.720         16.00         5.657
  85.740          4.00         2.828
  85.760         26.00         7.211
  85.780         24.00         6.928
  85.800         30.00         7.746
  85.820         26.00         7.211
  85.840         22.00         6.633
  85.860          2.00         2.000
  85.880         20.00         6.325
  85.900         16.00         5.657
  85.920         12.00         4.899
  85.940         10.00         4.472
  85.960         26.00         7.211
  85.980         54.00        10.392
  86.000         26.00         7.211
  86.020          6.00         3.464
  86.040         28.00         7.483
  86.060         20.00         6.325
  86.080         28.00         7.483
  86.100          8.00         4.000
  86.120         20.00         6.325
  86.140         12.00         4.899
  86.160         16.00         5.657
  86.180         10.00         4.472
  86.200         32.00         8.000
  86.220         18.00         6.000
  86.240         20.00         6.325
  86.260          6.00         3.464
  86.280         10.00         4.472
  86.300         20.00         6.325
  86.320         28.00         7.483
  86.340         22.00         6.633
  86.360         28.00         7.483
  86.380         40.00         8.944
  86.400         30.00         7.746
  86.420         14.00         5.292
  86.440         28.00         7.483
  86.460         86.00        13.115
  86.480         22.00         6.633
  86.500          4.00         2.828
  86.520         16.00         5.657
  86.540          6.00         3.464
  86.560         22.00         6.633
  86.580         20.00         6.325
  86.600         18.00         6.000
  86.620          8.00         4.000
  86.640         28.00         7.483
  86.660          8.00         4.000
  86.680         42.00         9.165
  86.700         24.00         6.928
  86.720         22.00         6.633
  86.740          6.00         3.464
  86.760         16.00         5.657
  86.780         52.00        10.198
  86.800         20.00         6.325
  86.820         10.00         4.472
  86.840         22.00         6.633
  86.860         34.00         8.246
  86.880         24.00         6.928
  86.900         10.00         4.472
  86.920         26.00         7.211
  86.940          4.00         2.828
  86.960         36.00         8.485
  86.980          6.00         3.464
  87.000         12.00         4.899
  87.020          8.00         4.000
  87.040         16.00         5.657
  87.060          8.00         4.000
  87.080         26.00         7.211
  87.100         24.00         6.928
  87.120         18.00         6.000
  87.140          4.00         2.828
  87.160         36.00         8.485
  87.180         70.00        11.832
  87.200         40.00         8.944
  87.220         20.00         6.325
  87.240         12.00         4.899
  87.260         20.00         6.325
  87.280         48.00         9.798
  87.300         36.00         8.485
  87.320         24.00         6.928
  87.340          4.00         2.828
  87.360         16.00         5.657
  87.380          6.00         3.464
  87.400         42.00         9.165
  87.420          0.00         0.000
  87.440         26.00         7.211
  87.460         16.00         5.657
  87.480         20.00         6.325
  87.500          6.00         3.464
  87.520         36.00         8.485
  87.540         12.00         4.899
  87.560         22.00         6.633
  87.580         26.00         7.211
  87.600         20.00         6.325
  87.620         22.00         6.633
  87.640         26.00         7.211
  87.660         38.00         8.718
  87.680         28.00         7.483
  87.700         24.00         6.928
  87.720         38.00         8.718
  87.740         54.00        10.392
  87.760         22.00         6.633
  87.780         12.00         4.899
  87.800         24.00         6.928
  87.820          6.00         3.464
  87.840         24.00         6.928
  87.860          4.00         2.828
  87.880         24.00         6.928
  87.900          2.00         2.000
  87.920         26.00         7.211
  87.940          8.00         4.000
  87.960          8.00         4.000
  87.980          2.00         2.000
  88.000         20.00         6.325
  88.020         12.00         4.899
  88.040         30.00         7.746
  88.060         10.00         4.472
  88.080         14.00         5.292
  88.100         16.00         5.657
  88.120         32.00         8.000
  88.140         90.00        13.416
  88.160         18.00         6.000
  88.180         12.00         4.899
  88.200         10.00         4.472
  88.220          4.00         2.828
  88.240         28.00         7.483
  88.260         26.00         7.211
  88.280         24.00         6.928
  88.300         28.00         7.483
  88.320         32.00         8.000
  88.340         14.00         5.292
  88.360         26.00         7.211
  88.380          8.00         4.000
  88.400         10.00         4.472
  88.420         12.00         4.899
  88.440         12.00         4.899
  88.460          6.00         3.464
  88.480         12.00         4.899
  88.500         14.00         5.292
  88.520         12.00         4.899
  88.540          8.00         4.000
  88.560         40.00         8.944
  88.580         24.00         6.928
  88.600         18.00         6.000
  88.620         10.00         4.472
  88.640         20.00         6.325
  88.660         10.00         4.472
  88.680          6.00         3.464
  88.700          4.00         2.828
  88.720         18.00         6.000
  88.740         10.00         4.472
  88.760         36.00         8.485
  88.780         36.00         8.485
  88.800         24.00         6.928
  88.820         66.00        11.489
  88.840         18.00         6.000
  88.860         10.00         4.472
  88.880         28.00         7.483
  88.900         24.00         6.928
  88.920         16.00         5.657
  88.940         24.00         6.928
  88.960         12.00         4.899
  88.980         16.00         5.657
  89.000         20.00         6.325
  89.020          2.00         2.000
  89.040          6.00         3.464
  89.060         62.00        11.136
  89.080         16.00         5.657
  89.100          0.00         0.000
  89.120         22.00         6.633
  89.140          4.00         2.828
  89.160         18.00         6.000
  89.180          4.00         2.828
  89.200         26.00         7.211
  89.220         18.00         6.000
  89.240         22.00         6.633
  89.260         14.00         5.292
  89.280         10.00         4.472
  89.300         12.00         4.899
  89.320         16.00         5.657
  89.340         20.00         6.325
  89.360         16.00         5.657
  89.380         26.00         7.211
  89.400         28.00         7.483
  89.420          0.00         0.000
  89.440         10.00         4.472
  89.460         28.00         7.483
  89.480         28.00         7.483
  89.500         28.00         7.483
  89.520         50.00        10.000
  89.540         24.00         6.928
  89.560         22.00         6.633
  89.580         10.00         4.472
  89.600         16.00         5.657
  89.620         32.00         8.000
  89.640         22.00         6.633
  89.660         24.00         6.928
  89.680         44.00         9.381
  89.700         14.00         5.292
  89.720         24.00         6.928
  89.740         58.00        10.770
  89.760         46.00         9.592
  89.780         22.00         6.633
  89.800         50.00        10.000
  89.820         28.00         7.483
  89.840         40.00         8.944
  89.860         16.00         5.657
  89.880         34.00         8.246
  89.900         34.00         8.246
  89.920         40.00         8.944
  89.940         34.00         8.246
  89.960         28.00         7.483
  89.980          6.00         3.464
  90.000         30.00         7.746
